Date,Open,High,Low,Close,Volume
2023-06-12,110.32294222621215,111.19836461438904,109.95738227745571,111.00596618652344,353000
2023-06-13,111.31380521568643,111.96797012896835,110.3999016975045,110.83280181884766,340600
2023-06-14,111.21761389718266,111.55431483095913,110.0054831960575,110.78471374511719,225200
2023-06-15,110.63078951378702,111.97760059316519,110.58268623470819,111.64089965820312,362600
2023-06-16,111.25608649771847,112.75681473831688,110.97710364846094,112.6990966796875,975300
2023-06-20,112.43936622070049,112.5067064115512,111.3138198852539,111.3138198852539,297000
2023-06-21,110.76547759328678,110.88092106738897,109.11082449547422,109.30323028564453,317800
2023-06-22,109.62066662197516,109.72648795201908,108.08145728433067,109.71687316894531,266200
2023-06-23,108.61056833130178,109.40903573049138,107.81210093211217,108.54322814941406,366000
2023-06-26,108.76449527106796,110.0247292720477,108.76449527106796,109.2936019897461,142300
2023-06-27,109.50523422525207,110.45761888844028,108.92803162148738,110.36141967773438,218300
2023-06-28,110.44799801064187,110.44799801064187,108.20652775176103,109.2070083618164,204800
2023-06-29,109.12042837387446,110.97710173626429,108.27386505726994,110.41913604736328,225900
2023-06-30,110.84243082499913,111.8621557409713,110.47686352340168,111.45811462402344,279800
2023-07-03,111.02520912022894,112.57403332715113,111.02520912022894,112.11227416992188,85700
2023-07-05,111.22724193095031,111.22724193095031,108.47590157241842,108.64906311035156,384200
2023-07-06,107.98527198550394,108.68754023538193,107.38882507929975,108.19691467285156,277700
2023-07-07,108.37006396940184,110.94824240327603,108.31233857239603,109.46675109863281,333400
2023-07-10,109.00499442816958,110.91939335472682,108.71639677529014,110.12092590332031,248000
2023-07-11,109.96700155164797,111.1695101237359,109.06272009631815,111.12141418457031,226700
2023-07-12,112.15076565467834,113.08391351776963,111.37153507833304,112.42974853515625,199400
2023-07-13,112.41049798976871,112.91074565761176,112.13151512491966,112.56442260742188,190200
2023-07-14,113.21858729804248,114.3248892919281,112.26619524240341,113.85350799560547,271600
2023-07-17,113.901608790538,114.99829597658342,112.70872239053817,114.72893524169922,234200
2023-07-18,114.48843069197581,115.79676051992628,114.19020359473971,114.55577087402344,189100
2023-07-19,114.23830983130526,114.8732378552366,113.81502448201769,114.58463287353516,247200
2023-07-20,115.22918005668726,115.65246542204783,114.34413551050594,114.79627990722656,175800
2023-07-21,115.10411182661727,115.48891600362035,114.35374771820233,115.2868881225586,184300
2023-07-24,115.46005920763793,115.91220360263762,114.19983257951267,115.18108367919922,163400
2023-07-25,115.13298219212088,116.518274429924,114.76742222471391,115.97954559326172,250700
2023-07-26,115.98919341730534,116.22086084233958,114.69570161800037,115.7864761352539,306900
2023-07-27,115.89266517527358,116.58767485454675,114.61848321813113,115.00460052490234,407800
2023-07-28,118.23831140039208,122.58211424618462,117.6494842032409,119.48353576660156,513000
2023-07-31,119.23257390513415,119.62834619522816,116.63594976374563,117.24407958984375,746500
2023-08-01,117.03171151335569,118.24797849712147,116.5587216614483,118.1900634765625,365300
2023-08-02,117.22476678755726,118.08387390872966,115.8154449105264,117.99699401855469,329200
2023-08-03,117.30198526491023,118.46999212502719,116.52975802792562,116.61663055419922,195900
2023-08-04,116.43323498490459,117.89081698819571,116.29809502916336,116.4525375366211,116500
2023-08-07,116.53941151793796,117.4371311010002,116.32704663695499,117.07997131347656,140300
2023-08-08,115.91197623422308,117.18615820393119,115.55481643313685,116.91587829589844,270100
2023-08-09,116.91588728463365,119.10709159142796,116.33670759194904,117.60124206542969,287500
2023-08-10,117.57227564334059,119.28083498646278,117.57227564334059,117.98735046386719,216000
2023-08-11,117.29235454645382,118.94299906430355,117.29235454645382,118.35417175292969,226500
2023-08-14,117.79427784821463,118.72095489501953,117.35990051409733,118.72095489501953,145700
2023-08-15,118.37346829843713,118.66305814213011,117.74603591139508,117.85221099853516,249000
2023-08-16,117.5046964278356,118.88506073505322,117.27302164070392,117.3212890625,291100
2023-08-17,117.72670851271225,118.40241559280106,117.39851361219807,117.41781616210938,186600
2023-08-18,117.16685986934151,119.13605171982319,117.16685986934151,119.01056671142578,443100
2023-08-21,118.87540601943746,120.13993293565986,118.78852613294282,119.48353576660156,358800
2023-08-22,119.5704144772244,121.3465436439304,118.49894252996661,118.68234252929688,429600
2023-08-23,118.7885388380475,119.27118365031271,118.0645716196497,119.10708618164062,305000
2023-08-24,119.20360799225472,121.1052296403174,118.33484589865057,120.76737976074219,278400
2023-08-25,121.21143043223194,123.24819234045178,120.64191302967316,123.11305236816406,493000
2023-08-28,123.19990731647617,125.08222642954905,123.19990731647617,124.91812896728516,331900
2023-08-29,125.29459480392038,127.37962390450569,124.90847012095054,127.2444839477539,472400
2023-08-30,127.77541939523574,128.6345268173759,127.1286769295037,128.27737426757812,298900
2023-08-31,128.65378035392868,129.08815767287626,127.64988577837984,127.95877075195312,305800
2023-09-01,128.48006235551034,129.1460998625125,127.92019257336877,127.94915008544922,252000
2023-09-05,127.1093240353851,127.3989138534175,122.93928073482842,123.1419906616211,325300
2023-09-06,123.3543672903448,123.56672483060133,121.81955289196907,122.02227020263672,291100
2023-09-07,121.90643244991844,122.75588470229167,120.79634786431747,121.00871276855469,328600
2023-09-08,121.15348865161297,122.27322065538502,120.77702633129032,120.9604263305664,238800
2023-09-11,122.5821305125376,123.48950513961789,122.02226811297531,122.6014404296875,333500
2023-09-12,121.73267217607768,122.87171419988563,121.06661999469735,122.13809204101562,258000
2023-09-13,121.41412887262732,122.19601111877186,120.76738658595033,121.01836395263672,279300
2023-09-14,121.63614783178475,122.88137233304762,121.63614783178475,122.36011505126953,217900
2023-09-15,122.09948164304562,122.78483638765171,120.82529964265854,121.55892181396484,589200
2023-09-18,121.97399375623068,121.97399375623068,120.58397438341775,121.27898406982422,175100
2023-09-19,121.32724105826763,121.32724105826763,119.75381444117978,120.9604263305664,218600
2023-09-20,121.47203081864482,121.72300815831589,120.2364613996098,120.30403137207031,206200
2023-09-21,120.0144532189057,120.03375576976619,117.94873414181244,117.97769165039062,335700
2023-09-22,118.08388014980025,118.63409493473912,117.87151525656503,118.4217300415039,341200
2023-09-25,117.7556733807471,119.82139248538923,117.25372604135627,119.7345199584961,258800
2023-09-26,119.24221396331276,119.90826609288796,118.95263152427002,119.30978393554688,547000
2023-09-27,119.7345215441092,120.130286446155,118.60513449209238,119.2325668334961,362400
2023-09-28,119.56076662731212,121.2789808821135,118.98159435872148,121.11488342285156,219300
2023-09-29,122.0994808328885,122.42768313020652,120.45849144002428,120.69981384277344,330900
2023-10-02,120.2075027230005,121.12453218556013,119.68624549855679,120.70945739746094,244100
2023-10-03,119.71520247847242,120.96042683728476,118.23831069800823,118.6051254272461,236300
2023-10-04,119.26153337850327,120.33300542683779,118.08387888468876,119.91793060302734,208200
2023-10-05,119.65730742147107,120.59363958605735,118.53757522625172,119.45459747314453,466700
2023-10-06,119.31945619225938,122.29255013075931,119.10709128742714,122.02227020263672,491700
2023-10-09,121.45273985524017,122.80414679795139,121.32725485572051,122.53386688232422,275700
2023-10-10,122.82345065071607,124.14590009712616,122.11879334387909,122.14775085449219,322000
2023-10-11,123.10337829589844,123.26747575611641,122.25392612132153,123.10337829589844,212900
2023-10-12,122.8041286212194,122.97788102191556,120.7190998128655,121.06660461425781,189300
2023-10-13,121.62649932106444,122.27324163725763,121.04732698768882,121.59754180908203,324900
2023-10-16,122.9392835826247,123.00685355978747,121.79058660628245,122.31184387207031,275200
2023-10-17,121.63614547446593,123.88526466233326,121.63614547446593,123.05512237548828,314400
2023-10-18,122.46628968040957,123.23851691314512,121.89676500786375,122.37940979003906,287300
2023-10-19,121.70371751008852,123.0454694977166,121.03766531314531,121.3658676147461,443900
2023-10-20,121.55891504786679,122.08982725371666,117.69775679317661,117.97769165039062,446500
2023-10-23,117.49504156953965,118.88506083520237,117.00274185218835,117.28267669677734,379000
2023-10-24,117.89082303186629,119.47389747848429,117.4950581024996,119.05882263183594,312100
2023-10-25,118.57456478321305,119.88205053938309,118.05156900291749,118.5164566040039,431300
2023-10-26,117.44140514446426,121.44134471348447,117.44140514446426,119.5430679321289,576000
2023-10-27,119.58181419956955,119.94015782086082,116.56975044747777,117.35424041748047,364000
2023-10-30,118.0806114058696,118.46801647024314,117.04430710742416,118.32273864746094,283100
2023-10-31,118.65205658315872,119.0200873955642,117.99347007365428,118.41960906982422,422900
2023-11-01,118.2646378957484,119.54306951601366,117.78038338217613,119.0588150024414,360500
2023-11-02,119.82393753491263,120.37598738258195,119.10724292668908,119.68834686279297,384300
2023-11-03,120.51157663196489,122.00308139681017,120.51157663196489,121.40260314941406,278000
2023-11-06,121.32512525461992,121.77064591937194,120.82150380061947,121.24765014648438,173500
2023-11-07,120.69561822388289,121.0539618960426,120.25978465379471,120.62782287597656,205000
2023-11-08,120.94740785382807,121.53819896716833,120.49221480588676,121.17985534667969,175800
2023-11-09,121.73189635881216,121.73189635881216,120.16290914728079,120.47283172607422,118600
2023-11-10,120.32755920226418,121.82875114673432,119.98858252132696,121.76095581054688,195600
2023-11-13,121.44136268053566,121.5285323470718,120.45348659100293,120.60844421386719,183100
2023-11-14,121.983729378805,123.83358547627692,121.36388408907818,123.82389831542969,267400
2023-11-15,123.79482241076971,124.74396449982626,123.33962198995368,123.68828582763672,388600
2023-11-16,123.63018988768,124.56963752144287,122.84569248067687,123.53334045410156,217000
2023-11-17,124.51152524922635,125.01515410991232,123.5914445767463,123.9013671875,162700
2023-11-20,123.43647327736079,123.63017951740747,122.44859731510405,123.3105697631836,213900
2023-11-21,123.44617025127671,124.2597217458794,123.19435581376419,123.88200378417969,160600
2023-11-22,124.40497096483674,125.13135267320862,123.34929976212196,124.52120208740234,174800
2023-11-24,124.90862165558492,124.90862165558492,124.06602345517848,124.48247528076172,65900
2023-11-27,123.79481793981684,124.25970550298354,122.85536304382997,123.00064086914062,367500
2023-11-28,123.00065360969789,123.0103407694919,121.53820282459247,121.65442657470703,218000
2023-11-29,121.68347600284008,122.41954494708847,120.98614830714556,121.42198181152344,331800
2023-11-30,121.49947133522699,123.12656702185416,120.87962606309648,122.89412689208984,301000
2023-12-01,122.43891423680424,124.49214872577235,122.43891423680424,124.0660171508789,218300
2023-12-04,123.43648339442977,124.8214591095816,122.8941206561211,124.37593841552734,192000
2023-12-05,124.21128583306977,124.637432180179,121.91591672132816,122.02245330810547,178000
2023-12-06,122.40986223070405,123.2912090417348,121.91592053013585,122.39049530029297,179500
2023-12-07,122.26456374948387,123.10716916830282,122.02243651996382,122.5066909790039,254000
2023-12-08,122.38080197837209,123.48490168465685,121.66410736304317,123.3105697631836,265800
2023-12-11,123.25246079430477,123.65923281208454,122.36142687408662,123.55269622802734,338000
2023-12-12,123.6301827914491,124.06601630124297,122.69072782247173,123.46553802490234,210300
2023-12-13,123.17498677043272,124.92799325376262,123.17498677043272,124.54058074951172,425000
2023-12-14,125.01514938630581,125.91585570519116,122.88442505238625,123.38805389404297,412900
2023-12-15,123.15562026534607,124.53090140906804,122.0030920759156,122.01277923583984,713000
2023-12-18,122.71977536097222,123.2040298643566,121.91591111196121,123.049072265625,240500
2023-12-19,123.68829501618633,124.0950744497936,122.06119944917108,122.2549057006836,659100
2023-12-20,122.05150298155804,122.94253689228862,121.50914029696,121.61567687988281,346400
2023-12-21,122.26457917418375,122.26457917418375,120.91835219934543,121.94497680664062,421900
2023-12-22,122.41953577357906,123.03938092571772,122.14835444316053,122.29362487792969,312200
2023-12-26,122.16772810971344,122.87474295084685,121.63504518905556,121.86749267578125,274700
2023-12-27,122.14835976545038,122.48733644324355,121.09268109559463,121.33480834960938,283100
2023-12-28,121.0442736769447,121.8384508637691,120.48253661112938,121.25733947753906,343600
2023-12-29,121.24764780949722,121.41229257117608,119.66897336181908,119.72708892822266,313500
2024-01-02,118.74889703904802,120.19197347679686,118.43897443384415,119.01039123535156,313100
2024-01-03,121.20890647105196,123.25246111360688,119.27188841283024,121.41229248046875,531700
2024-01-04,121.23795714716954,121.95465173958021,120.22101973957194,120.30818939208984,353300
2024-01-05,119.88204634088143,120.45347050993072,119.11692332182685,120.288818359375,423000
2024-01-08,120.16291594190298,121.21859463473278,118.51645353442673,120.43409729003906,352400
2024-01-09,119.81425753742421,120.71497127842206,119.09756288636142,120.70528411865234,250300
2024-01-10,120.54063528985738,121.47040308972274,120.317882346619,121.24765014648438,279600
2024-01-11,121.43165795791798,122.97159113814334,121.00551901481788,122.8456802368164,323100
2024-01-12,123.86263082764847,123.9401133306804,121.95466667803164,122.4486083984375,231700
2024-01-16,121.91591381064313,122.82631466168198,121.55757019925443,122.8166275024414,257500
2024-01-17,121.97402717748967,123.26213854603338,121.92559877129759,122.70040893554688,336900
2024-01-18,123.31057128043204,125.91585558616275,122.33237507628849,125.07325744628906,444200
2024-01-19,125.62531319767785,127.32020400576255,124.49214462396206,126.68098449707031,418000
2024-01-22,126.77784750777892,127.65919442058058,126.44855792880165,127.05872344970703,266200
2024-01-23,127.64947374780017,127.69790214760955,126.22576450738619,127.67852783203125,217800
2024-01-24,127.95941205571333,128.12405682223405,126.42916597018038,126.66161346435547,294400
2024-01-25,127.8722572161754,128.21124131759007,126.27422308842341,127.1168212890625,332300
2024-01-26,127.53326850275722,128.4146153119421,127.26208714274277,127.55264282226562,219900
2024-01-29,126.92313431646491,128.41463199025813,126.38077152599466,128.08534240722656,187800
2024-01-30,127.87226919978787,128.89888659293194,127.48487142895988,128.08534240722656,228400
2024-01-31,128.6002223728795,128.9888396442922,125.48164845004577,126.18114471435547,537500
2024-02-01,126.74463872387614,127.37612145684368,125.91883992762537,126.78349304199219,298800
2024-02-02,126.25887748257338,126.98751824296068,125.02504164419864,126.39488983154297,344800
2024-02-05,125.45250566991007,127.70642657703459,124.40326125954347,126.92920684814453,319500
2024-02-06,126.76404086060465,127.6578382954497,125.61765333250959,127.39553833007812,369700
2024-02-07,127.66758565224141,128.64881658304117,125.68567439448216,128.04647827148438,393000
2024-02-08,127.89103487043491,130.9998993735527,127.79387683236689,128.35736083984375,620700
2024-02-09,128.34765326293345,135.24545901063345,127.76473467256268,135.00257873535156,650900
2024-02-12,135.19685465206098,136.46954468413216,133.59383624109773,133.6909942626953,491300
2024-02-13,132.7971879687379,133.41896072262642,131.13588078494027,132.05882263183594,275900
2024-02-14,132.37946203063507,133.54529923011492,131.3205075712021,133.2635498046875,335000
2024-02-15,133.26352772923445,133.88530054798204,130.7375821386744,131.19418334960938,471400
2024-02-16,131.51480751987208,134.06991277521306,131.19420377563176,133.5841522216797,453900
2024-02-20,133.2343951113686,136.14895823746613,133.0498037415049,135.71177673339844,373000
2024-02-21,135.1191267571096,136.11979208488648,135.03169343508614,136.01292419433594,276300
2024-02-22,136.4695496025818,138.36401249814983,136.08094715065158,137.44107055664062,295700
2024-02-23,137.92684167751443,138.00456513874505,136.59586261149656,137.33421325683594,190300
2024-02-26,137.47024353315803,138.01429300847857,136.79018168900737,137.87828063964844,199200
2024-02-27,137.87826692977475,138.1308570684184,135.81864702821983,136.31411743164062,244600
2024-02-28,135.67288950179886,137.21761901910057,135.36201051839788,136.4112548828125,189600
2024-02-29,136.62502620393894,137.5965473691255,135.8478063069424,136.45986938476562,250600
2024-03-01,135.89635016734115,136.78042293249038,135.58545635929062,136.29466247558594,151400
2024-03-04,136.68329367940922,138.07256161225055,136.55699120397486,137.91712951660156,260300
2024-03-05,138.21828615058587,139.13151819196344,137.7033812462743,138.46116638183594,190200
2024-03-06,138.85948674736358,139.54927316677816,138.4223052706071,138.99551391601562,184000
2024-03-07,140.38476486062655,141.00653762067319,139.7435575325132,140.53048706054688,250100
2024-03-08,140.58879704632386,140.9385451659915,138.8983453305581,139.01492309570312,185200
2024-03-11,138.72349095328647,139.29669966708138,137.9365612363938,138.6749267578125,226700
2024-03-12,138.73321697940324,138.7817959995776,137.45080200313137,138.3543243408203,242200
2024-03-13,138.9274874603586,138.9274874603586,136.91643209967154,137.139892578125,336800
2024-03-14,137.33421990117986,137.5868100442241,136.36269882514554,136.9164581298828,235200
2024-03-15,136.0517998322653,138.35431477607804,135.76035537983867,136.98446655273438,599500
2024-03-18,136.91644460546308,137.27591744856747,134.9734026453255,135.29400634765625,299700
2024-03-19,134.92486276351232,136.32385559872864,134.92486276351232,135.5369110107422,253000
2024-03-20,135.65351202822785,136.08098373481303,135.17746129603304,135.98382568359375,220000
2024-03-21,136.31411913042012,137.56738961386023,135.33288818521672,137.1204833984375,255800
2024-03-22,137.9657000290801,138.3931716662274,137.0330481155177,137.5576629638672,276000
2024-03-25,137.17873992915966,139.94758025862507,137.1495954898374,138.8886260986328,316300
2024-03-26,138.7623528695866,140.20019986781864,138.55832692713028,139.12181091308594,314200
2024-03-27,139.5783959501845,141.01624262865462,139.5783959501845,140.5402069091797,218200
2024-03-28,140.69568229822846,141.21058725679168,139.55898965088838,139.7921600341797,247800
2024-04-01,139.6949981759376,139.6949981759376,138.07255988358438,138.2377166748047,204400
2024-04-02,137.80053208284255,137.80053208284255,136.3918296283509,136.625,202600
2024-04-03,136.66384822637758,137.16904326365426,135.88662851308266,136.8678741455078,258700
2024-04-04,137.79079717356296,138.6845945328001,136.9552886905888,137.71307373046875,403600
2024-04-05,137.35364110181234,138.69432997574083,136.9358793711853,137.69366455078125,288300
2024-04-08,137.6353754876347,138.3251619062476,136.39182981890286,136.50840759277344,312500
2024-04-09,136.42098534111196,137.08162736990792,135.3911753903345,136.31411743164062,242600
2024-04-10,135.02198614707606,136.2266775391274,134.50708119646376,135.43002319335938,200700
2024-04-11,135.2940122618255,136.05179747346585,134.50708260544775,135.167724609375,265300
2024-04-12,134.23505539317335,134.9928405906335,132.08800227511426,133.2926788330078,299200
2024-04-15,134.66251781624504,135.82833997705987,133.90473267050376,134.26419067382812,319600
2024-04-16,133.86589230029864,135.42033206493574,133.44814532279122,134.6431121826172,281700
2024-04-17,134.92483683201934,135.5077405185057,134.40993190471795,134.45849609375,565400
2024-04-18,134.448803796288,135.4689039112812,134.2836469889821,135.14830017089844,246600
2024-04-19,135.09970992098616,135.93521858652753,134.8179753494098,135.37173461914062,276600
2024-04-22,135.57577711564213,137.13020203436653,135.28431781080755,136.3238525390625,298800
2024-04-23,135.78949299276147,137.13990657658505,135.54661274513685,136.15866088867188,417200
2024-04-24,136.36327776431676,137.28892764322538,136.06122500182607,136.42173767089844,559200
2024-04-25,136.25610434963974,137.62997170625445,135.35968437114948,136.58738708496094,694400
2024-04-26,138.36074617212847,144.70389897172197,138.26330307984543,139.6566619873047,489500
2024-04-29,141.18639874124986,144.22644737875467,140.6699831295305,142.62847900390625,676700
2024-04-30,142.00492504875461,142.35569942616382,140.36797299826796,140.67977905273438,585100
2024-05-01,141.2741399676868,143.43724605293235,140.87464405380578,141.65414428710938,359600
2024-05-02,142.02439483195232,142.96953644520997,141.56643900417882,142.1802978515625,356500
2024-05-03,143.33978450110888,143.3592760930588,141.12795714823582,143.04747009277344,303300
2024-05-06,143.97311219834887,145.25928957827287,143.38849828106964,145.22030639648438,260200
2024-05-07,144.51878988221563,146.52599281929153,144.51878988221563,145.88290405273438,392900
2024-05-08,145.88287597009642,147.0033970467687,145.64902149971218,146.92544555664062,223500
2024-05-09,147.13008393869177,147.8413709100011,144.82082843851902,145.25929260253906,299100
2024-05-10,145.13262025255216,145.18134179717063,144.29466023538959,144.68441772460938,186300
2024-05-13,144.72341108332498,145.6490611203431,143.0962123120397,144.080322265625,167500
2024-05-14,144.49928507792563,144.5090234397785,143.690555012297,144.10952758789062,137600
2024-05-15,144.16799714533659,144.53824816281193,143.00849281449825,143.5054168701172,211100
2024-05-16,143.5931171809895,144.10953286493412,142.67720563052816,143.75875854492188,235500
2024-05-17,144.06081633480602,144.37260744920198,143.35926774275575,143.8854217529297,169500
2024-05-20,143.80748238942644,144.60647413522753,143.27157510477068,144.37261962890625,163400
2024-05-21,144.14850961965013,144.86953495193305,143.3202879692016,144.78184509277344,280400
2024-05-22,144.2751965381992,145.01571353298542,143.6905676854479,144.9767303466797,283300
2024-05-23,144.85006990865986,145.1326311002017,143.77825531785473,143.9341583251953,171700
2024-05-24,144.67466674114488,145.01570269104084,143.58337548984295,144.29466247558594,162300
2024-05-28,143.83669409587452,143.9925970803095,142.08283755802526,142.9500274658203,318400
2024-05-29,141.91721406139058,142.94030718947772,140.80643105974093,141.1279754638672,229700
2024-05-30,141.41052828428462,143.21310648226037,141.28385524260108,142.39463806152344,328100
2024-05-31,142.34593730463553,144.04134916751755,142.18029592394424,143.90493774414062,358900
2024-06-03,144.69416726211233,144.69416726211233,142.53106134998768,144.36288452148438,266200
2024-06-04,143.86595140573118,144.58699169506673,142.94030141967548,144.39212036132812,287900
2024-06-05,143.93414175864157,144.4018358591035,143.31054466878322,144.12901306152344,229200
2024-06-06,144.2167184531987,144.2167184531987,141.67360827716013,142.21926879882812,197600
2024-06-07,142.0341260854559,142.57977170193118,141.7223200944826,141.81976318359375,179100
2024-06-10,141.1182475484224,142.0731276003924,140.2997789324481,141.8587646484375,125800
2024-06-11,141.19616629951713,142.0048963637283,140.65052068215246,141.7710418701172,147700
2024-06-12,142.49208619477034,142.56028446504888,140.37770193248102,142.09259033203125,221300
2024-06-13,142.1510502401924,142.77464737345872,141.3033518363989,142.09259033203125,232400
2024-06-14,141.37155067038904,141.6541267179326,139.99768335221012,141.04026794433594,141500
2024-06-17,141.15718412148226,142.92079402863507,140.86488458704773,142.57977294921875,303800
2024-06-18,142.72591745789433,143.9049133850115,142.71617909634801,142.9305419921875,219900
2024-06-20,142.9013265736243,143.74902501392364,141.93669344423844,142.07310485839844,199900
2024-06-21,142.13156155358197,143.3690174832924,141.5859159092863,143.08645629882812,444100
2024-06-24,143.44697885929565,144.43108875923312,142.91107154042683,142.9597930908203,182900
2024-06-25,143.02797539856016,143.0377286281878,140.79667136986237,141.14744567871094,194500
2024-06-26,140.5530705033319,141.07922450275757,139.2961379744262,140.02691650390625,192400
2024-06-27,140.18283081054688,140.19258404144063,138.6238452437368,140.18283081054688,377300
2024-06-28,140.0951327056182,140.62130164013826,136.49969950140468,137.2012481689453,435100
2024-07-01,137.75665211276703,137.85408034544307,134.84327587630082,134.9894256591797,306400
2024-07-02,134.93096624606906,136.8992009132668,134.22941755019122,136.8017578125,259400
2024-07-03,137.2694557978359,137.77611825136836,136.96740302461077,137.60073852539062,143300
2024-07-05,137.37664516545647,137.81510937338362,136.14892754198513,137.2889404296875,207000
2024-07-08,138.01969691787608,138.8479185192925,137.87354716126237,137.88328552246094,249300
2024-07-09,137.2499499009648,137.6494457254706,136.16839710030692,136.45095825195312,238400
2024-07-10,137.1427912342902,138.0002429282775,136.96741149746342,137.6689453125,142000
2024-07-11,137.58126568918084,139.62745197757425,137.14280144673384,138.44845581054688,244500
2024-07-12,139.73460255093156,141.76129679642114,139.73460255093156,140.8843536376953,263900
2024-07-15,141.0500051627038,141.95617833865197,139.471528177945,139.75408935546875,319900
2024-07-16,140.16336802752338,141.5762039487746,140.16336802752338,140.85516357421875,178800
2024-07-17,140.6407683731012,142.03412724659594,140.6407683731012,141.14744567871094,242300
2024-07-18,140.90385313125856,143.47619311255724,140.89411476933762,142.5310516357422,434200
2024-07-19,142.8331035452224,142.8331035452224,140.95257383249924,142.19976806640625,251200
2024-07-22,142.24849707102436,143.7782525564522,141.5274568267193,143.41773986816406,235700
2024-07-23,144.08032781477473,144.70392506172618,141.9367132076123,142.29722595214844,234500
2024-07-24,142.32643685826764,142.87208246083867,140.21203784671354,140.44589233398438,250600
2024-07-25,139.60533657447922,140.79779389334837,138.03168486117107,138.29559326171875,558100
2024-07-26,139.89854478345555,147.87430433163027,139.13615611277922,143.34884643554688,562800
2024-07-29,143.27066227743248,145.00070512899177,141.89249229543964,144.46311950683594,390900
2024-07-30,144.05258512959574,144.5608342758621,142.12706091227471,142.45938110351562,411000
2024-07-31,143.1924622534942,145.48941215296958,142.12707481683992,143.66162109375,280600
2024-08-01,143.56388751848672,146.1638212279078,142.14661231103588,143.7104949951172,335300
2024-08-02,143.2706626945803,143.68117855788788,140.50455386188017,142.4007568359375,213500
2024-08-05,140.19175816641953,140.19175816641953,136.33094072792318,137.50384521484375,448500
2024-08-06,138.13921411272779,142.79174288819075,137.9241798288671,141.65792846679688,476000
2024-08-07,142.7135341480353,143.9353129604213,140.23088616355557,140.3579559326172,353600
2024-08-08,141.19849506158724,142.86011073059748,141.19849506158724,142.27365112304688,268600
2024-08-09,142.12708691616425,142.12708691616425,140.2308838444139,140.70004272460938,263200
2024-08-12,140.7196023508052,140.92485284608276,139.54669763491262,140.05494689941406,221100
2024-08-13,140.26995040499233,142.01954569055792,139.8692183640081,141.11053466796875,212000
2024-08-14,140.8759715764874,141.54061200957045,140.25042149828965,140.65115356445312,115700
2024-08-15,141.72633364426625,144.01349986295762,141.72633364426625,143.69094848632812,277500
2024-08-16,142.81128780000967,143.5248024773272,142.32257625664016,143.4075164794922,250600
2024-08-19,143.01653650230918,144.39469155874292,142.62555836471478,143.65185546875,191200
2024-08-20,143.66160543616044,144.96157960840455,143.66160543616044,144.76609802246094,387200
2024-08-21,144.8247581748117,146.19315926720975,144.13079622530404,145.9585723876953,267300
2024-08-22,146.1931430052955,147.0043908471752,145.31345349068744,145.62623596191406,200400
2024-08-23,146.28111414215468,147.131467288796,146.06607991196887,147.0435028076172,221400
2024-08-26,147.27810094238174,149.2231782196865,146.75029904717988,146.7698516845703,235500
2024-08-27,146.62321074365258,148.1186666577194,146.4570506325663,147.78634643554688,208300
2024-08-28,147.52243900517198,148.53896722738338,147.52243900517198,148.11866760253906,249000
2024-08-29,149.10588837840956,149.45776127089994,147.7961450785867,148.84197998046875,187100
2024-08-30,148.76376076539145,149.97577051724159,148.21640633368162,149.73141479492188,178500
2024-09-03,148.67581490735162,148.93972329651422,146.34954336691524,146.6525421142578,362400
2024-09-04,146.22248747836645,147.4931254531261,146.22248747836645,147.32696533203125,175800
2024-09-05,147.66905729781163,148.33369772794828,146.56456461999554,147.3171844482422,200600
2024-09-06,146.9848817009006,149.66301128850816,146.9848817009006,148.93972778320312,319100
2024-09-09,149.1254035297758,149.60433115590843,148.02091099487063,148.4803009033203,241500
2024-09-10,148.44121305528495,149.3404403457152,148.02092836146767,148.08934020996094,158100
2024-09-11,147.38558937416465,147.4735687681419,145.2743672902122,147.43446350097656,178000
2024-09-12,147.48335555565916,148.57806454072724,146.58412818731162,148.52920532226562,200400
2024-09-13,148.75401548591918,149.55549462674657,148.47055445109223,148.84197998046875,138600
2024-09-16,149.58480892545694,149.711878687663,148.63672233934471,149.53594970703125,182900
2024-09-17,150.52312888636465,152.05769002153292,148.44121330516873,149.5750274658203,259900
2024-09-18,150.28854503898594,151.97949745395337,149.26226288919727,149.6141357421875,214200
2024-09-19,151.5201208780258,155.22454756499997,151.5201208780258,153.357666015625,412400
2024-09-20,152.78097785998767,152.78097785998767,150.9922920842791,152.3900146484375,663300
2024-09-23,152.64413901555898,153.36743736156149,151.24643136778755,152.4388885498047,315800
2024-09-24,152.6539129888592,153.53360261442796,152.5073055084099,153.09376525878906,246200
2024-09-25,153.74863062888252,154.30575394629471,152.35090807666947,153.5922393798828,284100
2024-09-26,154.3741917455601,155.46890073822925,154.13960485529182,154.80426025390625,371600
2024-09-27,155.0974630619756,157.9026770071578,154.6869472219151,156.2801513671875,354300
2024-09-30,155.6936899424124,156.79818261159085,155.34181709559473,156.57337951660156,289800
2024-10-01,156.91547599488553,156.91547599488553,155.45912532444558,156.3583526611328,192200
2024-10-02,156.25083362745252,156.49518936533394,154.39373598527015,155.1658935546875,186900
2024-10-03,154.42304427588758,156.83727995285665,153.10351743844512,155.35159301757812,367000
2024-10-04,156.32905490747916,157.8245110755801,155.73282621263354,156.95460510253906,350500
2024-10-07,155.79143180071503,156.03578752001562,154.4425834576031,155.10723876953125,223300
2024-10-08,154.7065131414347,155.4298115394373,153.5531611461703,155.08770751953125,205900
2024-10-09,154.77492465796232,156.4365406316993,154.5501066490753,156.0944366455078,152600
2024-10-10,154.4817068065256,155.7816811750794,154.4817068065256,155.6252899169922,168500
2024-10-11,157.30643565031355,158.26430586600358,156.729759749031,157.9026641845703,194400
2024-10-14,161.26503180438755,163.97248287121053,159.76957575499546,163.4153594970703,469700
2024-10-15,163.54240800657777,165.82957403020615,162.73114520381247,164.87168884277344,397300
2024-10-16,164.89123875307473,165.37995019864655,162.1740043088386,162.29129028320312,330000
2024-10-17,163.21005947029988,164.5198173932899,162.76045332189855,164.09951782226562,238200
2024-10-18,165.28222016135715,165.28222016135715,163.99201476040307,164.8228302001953,171500
2024-10-21,164.66643721782916,164.68598985183766,162.5454313137494,162.5747528076172,217900
2024-10-22,161.97853331620303,162.613852271317,161.0890748476109,162.06649780273438,228500
2024-10-23,162.7506980951874,164.18751109598531,162.40860899432064,163.86495971679688,318100
2024-10-24,164.96263491104682,164.97243006379486,162.8359053646187,163.22793579101562,547300
2024-10-25,165.55067344955356,166.4621311902028,161.3266442870769,165.54087829589844,518900
2024-10-28,166.51109693898178,167.9909874127624,165.39383645811452,165.72706604003906,350000
2024-10-29,165.65844142123623,166.1092726098588,164.29616765842155,165.33502197265625,338100
2024-10-30,164.99201804220056,166.80510810317358,164.76659496272163,165.658447265625,290300
2024-10-31,165.7172469973065,166.88351308507578,164.51178534847594,164.560791015625,329900
2024-11-01,164.74701596713246,167.57937026995276,164.27657947244072,166.0308837890625,316300
2024-11-04,166.24650753904666,167.1677603744158,164.82541776501486,164.90382385253906,191800
2024-11-05,164.39420326637682,166.9619390225879,164.39420326637682,166.91293334960938,206200
2024-11-06,171.65639773514667,171.65639773514667,168.7064415133303,169.7061004638672,264100
2024-11-07,170.72533703485217,171.96021416270565,170.07849805877953,171.2251739501953,412300
2024-11-08,171.21537219293572,174.29274010121063,171.0095692978779,172.2542266845703,309200
2024-11-11,172.80306637183605,174.47894973522423,172.39143067982758,172.63644409179688,189100
2024-11-12,173.12645192520313,173.70469487939047,171.46036389745427,172.19540405273438,179800
2024-11-13,171.9993896484375,172.87163666728088,171.5583685633018,171.9993896484375,168400
2024-11-14,171.65636354138798,172.28359717955007,170.44110677931556,170.6273193359375,198200
2024-11-15,169.51987152643795,170.29410728655165,162.8555040894364,163.16912841796875,620500
2024-11-18,163.07110850953194,164.47259285308147,161.05220060257204,163.36512756347656,384400
2024-11-19,163.10050135971352,164.32556823234182,162.88488839377655,163.5709228515625,287600
2024-11-20,163.66896746747955,165.57027403316428,162.3458889942029,165.3644561767578,221800
2024-11-21,165.32524989622468,166.83452591248917,164.3942019349008,166.49151611328125,205100
2024-11-22,166.78553130251822,168.63784714971507,166.78553130251822,168.08900451660156,241600
2024-11-25,168.61822873869966,170.54893557134125,168.31441450843965,169.0592498779297,270100
2024-11-26,169.41206482132665,169.41206482132665,167.74597670276387,168.60841369628906,140300
2024-11-27,169.2258486988311,170.41172010241513,168.09879307136399,168.30459594726562,167200
2024-11-29,169.14745603968092,170.0295132982539,168.65742921417322,169.5100860595703,117300
2024-12-02,169.5296846654076,169.65709643169575,167.4323703477295,169.31407165527344,170900
2024-12-03,169.99028664377565,169.99028664377565,167.67735964872438,168.9612274169922,160100
2024-12-04,168.46141115590896,169.44146474689205,167.61856446948624,169.14744567871094,173400
2024-12-05,168.57901699001582,169.0004478209138,167.1285418265622,167.6871795654297,245000
2024-12-06,168.17719634246092,169.206240613641,167.44215617480054,167.7361602783203,209200
2024-12-09,168.13799201141873,170.00989796299024,166.8345189382819,167.3833465576172,301700
2024-12-10,167.314763972231,167.95179287684704,164.83522938002554,167.5009765625,287000
2024-12-11,168.4516157508474,170.6273359159199,168.32420399879283,168.87303161621094,418600
2024-12-12,168.2457700353649,169.15722749886876,167.3735230834249,168.21636962890625,178300
2024-12-13,167.50097468369896,167.58917592406897,166.43271978295425,166.8051300048828,153200
2024-12-16,166.74632140113093,167.52055717676743,164.24718169284583,164.28639221191406,236100
2024-12-17,163.57093094101776,163.5807410473189,159.59191593464618,159.83692932128906,511900
2024-12-18,160.42498045548814,161.14041541532916,154.7602716927562,155.05429077148438,468600
2024-12-19,155.34829094522857,158.34726752667316,155.07387713324243,155.70111083984375,404700
2024-12-20,155.55410914655246,156.59296357357135,154.32904214215637,155.02487182617188,730200
2024-12-23,154.0350301134896,155.7305187378595,153.82922722182215,155.3581085205078,194900
2024-12-24,155.61291680874774,156.2401505443862,154.77007007450553,156.1715545654297,100500
2024-12-26,155.26007251773754,156.44594382384386,155.26007251773754,155.68150329589844,164500
2024-12-27,154.67207884417124,156.39696793613152,154.46626099156944,154.9954833984375,145000
2024-12-30,153.86840893166374,154.34864055969513,151.90830181151514,153.60379028320312,221700
2024-12-31,154.14283313865855,155.09348635246576,153.06476816802203,153.9664306640625,317100
2025-01-02,154.50541406053284,154.9562452089523,150.38919273059594,151.0850372314453,239400
2025-01-03,150.9674458911304,152.61394367101406,149.82078500459767,152.39833068847656,250700
2025-01-06,150.92827181639163,151.5555055945941,148.41933670358165,149.86981201171875,369000
2025-01-07,152.8099679524286,152.94717486941659,149.55619751195616,150.36962890625,361200
2025-01-08,149.84039419615527,151.1830628417546,149.05634832584286,151.07525634765625,228600
2025-01-10,149.67380144035604,151.22228807240447,149.53659452128502,150.3892364501953,350800
2025-01-13,149.87959178115395,151.61429086251573,149.87959178115395,150.82044982910156,349300
2025-01-14,151.72208498613796,152.34931864881253,150.41861199327377,151.5260772705078,196900
2025-01-15,153.0059656935918,153.7900115770172,151.09486413391397,152.45713806152344,206100
2025-01-16,152.7805291601192,154.03499635872686,152.21209637412062,153.2901611328125,346300
2025-01-17,153.83901445152966,154.79946279018606,152.5747369358163,152.9765625,231900
2025-01-21,153.5940154588304,157.0633989407048,153.5940154588304,156.64198303222656,270900
2025-01-22,156.16174421991363,157.54362344855716,155.18169057482152,155.8971405029297,280000
2025-01-23,155.29929122166507,156.6223545339136,154.58384136708125,156.43614196777344,149800
2025-01-24,156.46554994853224,157.26920107193223,154.08402689859372,155.14248657226562,329600
2025-01-27,155.09348331003815,155.75011743220608,153.52539155704252,155.29930114746094,317000
2025-01-28,154.42703431386295,157.15158179706276,154.42703431386295,155.26007080078125,204300
2025-01-29,155.61288373648753,155.65209424849948,153.49596472070252,153.9761962890625,265800
2025-01-30,154.6720768692887,155.5149086664643,153.4568049388864,154.97589111328125,274200
2025-01-31,154.75046688049648,156.21075221700386,153.63320630664722,154.0154266357422,834100
2025-02-03,151.49669007178431,153.62340462840817,151.0654640871359,152.86875915527344,364600
2025-02-04,152.97657163323618,155.29930896783935,152.97657163323618,154.55445861816406,302400
2025-02-05,155.56678689466608,156.92313594175852,155.07535781931088,155.60610961914062,262600
2025-02-06,157.10003097165043,157.10003097165043,152.70665418045422,153.7681427001953,446600
2025-02-07,154.9181067066418,155.19330580645521,139.60517395113374,140.7256317138672,1221500
2025-02-10,141.78711035544322,142.12129352206097,138.48470639401995,140.82391357421875,621900
2025-02-11,139.83121423337005,140.61750364616478,137.8556600216051,139.85086059570312,377300
2025-02-12,138.55351384739762,141.03032057107268,137.53133297854282,139.27099609375,423500
2025-02-13,140.3030162479326,141.3153590533059,139.0351356946295,140.3226776123047,665900
2025-02-14,141.22689417596524,142.81911962723777,140.27352054231486,142.3080291748047,512800
2025-02-18,142.3080350119088,144.7651805608191,141.4332917963858,144.38186645507812,489600
2025-02-19,143.63488862497093,144.9617531188217,143.1139750082088,144.5194549560547,331000
2025-02-20,144.45068672182066,144.89296996096067,143.41868249900884,144.1656494140625,283100
2025-02-21,144.50962590768984,144.86345542520576,142.71099377675264,143.83145141601562,451900
2025-02-24,143.67418921142476,144.76516229739394,141.88539527604814,143.1139678955078,353300
2025-02-25,143.3793614383485,145.7873610696006,143.22210052435642,145.17799377441406,336700
2025-02-26,144.13615069776068,146.62278077273558,144.10666615119783,144.12632751464844,735600
2025-02-27,143.72335768500795,144.65707002297643,142.86827580669944,143.13365173339844,262800
2025-02-28,143.65455331584818,144.4310046691492,142.15078151982524,144.23443603515625,348700
2025-03-03,144.4506545692963,146.2885943969859,143.19259741490004,144.07716369628906,394100
2025-03-04,143.04517170760187,145.413863500686,142.65203443781988,143.43832397460938,490100
2025-03-05,143.54644673744147,146.2984527664409,143.54644673744147,145.89547729492188,445100
2025-03-06,145.0305485219981,148.9030120941682,144.53911943917907,148.5590057373047,471700
2025-03-07,147.92997950600335,150.7311313223095,146.62277632487553,150.16107177734375,480200
2025-03-10,149.46327062147788,151.3601799639148,147.66463811184974,147.98898315429688,391100
2025-03-11,147.76290385774493,147.9791338698189,144.74553686653798,145.3549041748047,304000
2025-03-12,145.69890235666847,145.69890235666847,143.0648346293028,143.5267791748047,299700
2025-03-13,143.9002588077556,144.67671011222558,141.29567583016868,142.27853393554688,238400
2025-03-14,142.74050098258454,144.37204929445636,142.06232638323863,144.14599609375,223600
2025-03-17,143.99853726172162,145.46300125443267,143.35968548483189,145.3057403564453,225200
2025-03-18,144.86347189053822,145.00107144092166,143.28106956251574,143.7921600341797,219900
2025-03-19,143.8314663428333,144.93227773224964,142.97638450227305,144.4604949951172,279600
2025-03-20,143.62507975791536,144.8929602918042,141.26621097787046,142.7110137939453,332800
2025-03-21,141.5315735327772,142.96655302987472,139.9196867674318,142.3375244140625,601900
2025-03-24,143.25157833447938,145.6399164898611,142.42598107068508,145.45318603515625,463800
2025-03-25,145.94461117942933,146.67191660765496,143.4284817335018,144.68655395507812,325200
2025-03-26,144.5292868819481,146.1509967511721,143.79214330553276,146.01339721679688,630400
2025-03-27,145.73820579296662,147.32060801990121,144.50963310116106,146.7898712158203,312700
2025-03-28,146.73089236026235,147.42872827286658,143.2614041546856,144.41134643554688,239800
2025-03-31,144.06733927166468,146.53430765527222,143.59557159214165,145.83648681640625,372500
2025-04-01,146.3279289386792,147.45820983366664,144.85364168579534,146.54415893554688,240000
2025-04-02,145.4630159103769,148.53936692435062,145.4630159103769,147.94964599609375,247600
2025-04-03,144.24425830925108,147.47787005738485,143.9494128587316,146.12152099609375,352900
2025-04-04,142.73066750752537,145.42370434629547,137.63945428633932,137.7770538330078,531600
2025-04-07,134.00289075907227,139.68381026775526,128.6070085425134,132.34185791015625,629900
2025-04-08,135.025053604175,136.9219625810332,129.02961306087627,131.3688201904297,473800
2025-04-09,130.89705451371228,141.94438664080494,129.06895256636582,141.28587341308594,491800
2025-04-10,137.60014014324574,140.9123672890104,135.21180205228458,138.34710693359375,309000
2025-04-11,138.45522828256912,142.2294151261458,137.3446087271347,141.6396942138672,203000
2025-04-14,143.30071647529343,143.8904223472296,141.32516206166184,143.29087829589844,249300
2025-04-15,143.59560325421714,144.02804830741772,141.30554162152515,141.47262573242188,250700
2025-04-16,141.5905608939007,143.3204010585323,140.12611166033892,142.5144500732422,307700
2025-04-17,142.90756616049867,143.26139568732975,138.29797412661645,141.36448669433594,390600
2025-04-21,140.84358440349993,141.58072806053443,138.6812993423107,140.13592529296875,291600
2025-04-22,142.02301901433995,144.3032573833429,141.12861439560723,143.5169677734375,217800
2025-04-23,145.3352389782031,146.76039538307882,144.69638713943039,145.5121612548828,537000
2025-04-24,145.39420527769312,149.3944453214828,142.9665593386668,148.86370849609375,424500
2025-04-25,148.26414612424384,150.37728497964335,145.04037284864117,146.50482177734375,220500
2025-04-28,147.23215717254052,148.44106852493894,145.73820855180134,147.1338653564453,235200
2025-04-29,147.1928352219858,149.37478157519996,146.4556915890682,147.7235870361328,359900
2025-04-30,146.51468782594912,147.41891562430362,144.68657086484222,147.3795928955078,556200
2025-05-01,146.34446689472773,148.3949671666266,144.87560983167245,146.1768798828125,445300
2025-05-02,150.8200800146687,150.82993276495682,145.69382189987473,149.8441162109375,431600
2025-05-05,149.28220335297306,151.04682352421423,148.74001624656938,149.3314971923828,267600
2025-05-06,148.11895410159835,149.88355931551433,147.30072446354023,148.77944946289062,312000
2025-05-07,149.725822860132,150.97779905174502,148.4836843764286,149.24276733398438,318400
2025-05-08,149.6370904773431,152.3776743797429,149.0949033979698,151.18482971191406,302500
2025-05-09,151.72702915659627,152.11149701025283,150.77078589758978,151.14540100097656,231600
2025-05-12,153.58035336298764,154.36900960970033,151.52000038825545,153.31419372558594,352500
2025-05-13,154.09298971226121,154.09298971226121,151.02709949704072,151.4608612060547,339400
2025-05-14,151.44115218055256,151.44115218055256,148.8287440194347,150.31732177734375,350100
2025-05-15,150.18915951898913,153.2747551350197,150.18915951898913,152.7522735595703,278100
2025-05-16,152.9790195330319,154.9210795243073,152.3973913234781,154.78306579589844,278600
2025-05-19,154.14229995484683,156.0942128107709,154.09300611132787,155.83790588378906,185400
2025-05-20,157.98696796016725,157.98696796016725,155.6703079013984,156.28150939941406,388100
2025-05-21,154.6351912204993,155.413979709526,153.61980133414392,154.2310028076172,319800
2025-05-22,154.14229666137166,155.02952565627956,153.35364030902645,154.4281768798828,278900
2025-05-23,152.91987932375972,153.96484260280818,152.07207637318606,153.72825622558594,260500
2025-05-27,154.8027705397575,156.1927754755183,154.46759652531446,155.916748046875,352800
2025-05-28,155.91675648544185,156.58710455060864,155.02951252332593,155.1675262451172,364400
2025-05-29,155.59144226540175,156.41952463373346,154.59577287317205,156.0843505859375,232100
2025-05-30,155.9956163554189,156.52795067401013,154.31971618579314,156.15333557128906,335100
2025-06-02,155.30554827866962,156.813861590753,153.05788752213863,154.6844940185547,349600
2025-06-03,153.9648187854225,155.20695724316363,153.78737902995462,154.04368591308594,397800
2025-06-04,154.2704388516904,154.30001214509375,148.15836414730086,148.27667236328125,831900
2025-06-05,149.43008223768163,151.1651140408049,146.9359674396561,150.32717895507812,482400
2025-06-06,152.18050703516937,152.28894746522036,150.05115456510006,151.1355438232422,264700
2025-06-09,150.544055582443,151.007375533086,149.21319719105352,149.44979858398438,388400
2025-06-10,150.00187555238352,150.82995798605992,148.72031080938757,150.3666229248047,323500
2025-06-11,150.82994254149838,151.4115707359019,149.4498052933599,149.7652587890625,380800
2025-06-12,149.26247896131767,152.42694148321849,149.26247896131767,152.16078186035156,337200
2025-06-13,150.829935873921,151.53972501083467,148.59212803830783,149.0160369873047,361200
2025-06-16,149.09489874958857,150.73134277186625,148.97659053611832,149.53851318359375,346200
2025-06-17,148.52313648415543,149.11461743433793,147.01483824975645,147.33029174804688,379700
2025-06-18,147.0049610386582,148.59212630654162,147.0049610386582,147.5767364501953,383200
2025-06-20,148.15837561472694,148.6315784305405,146.8768260217442,148.16824340820312,570500
2025-06-23,147.3697197894407,151.75660037829923,147.3697197894407,151.6087188720703,356500
2025-06-24,152.37767518899636,152.37767518899636,151.0073757093355,151.68759155273438,246600
2025-06-25,151.67775053438675,152.33824588551536,150.6032139948955,151.7467498779297,264700
2025-06-26,152.33824953068293,153.37336004754195,150.94824440925422,152.28895568847656,658200
2025-06-27,152.46640393058135,153.89583503865111,152.04249495674745,153.60995483398438,643100
2025-06-30,153.81695259670582,154.28028757107535,152.4170949235091,154.21127319335938,315500
2025-07-01,154.2112909513434,157.53350328229894,153.7479709659874,156.75469970703125,338300
2025-07-02,156.7645627082632,158.2531403852606,156.399800331021,158.04612731933594,293500
2025-07-03,158.3221432480809,159.07135840752164,157.55320754586447,158.75588989257812,235100
2025-07-07,158.66717993630388,160.0670377135844,158.27285931033134,158.6770477294922,313900
2025-07-08,158.61788810431491,160.2740678475626,157.58279268744894,157.7799530029297,342700
2025-07-09,157.66165312376677,157.74052026260657,155.8576218513925,157.46449279785156,252800
2025-07-10,156.93215349895374,158.08555716392323,156.0843505859375,156.0843505859375,361600
2025-07-11,156.31107345675375,156.31107345675375,154.40845469060778,155.66043090820312,292000
2025-07-14,154.91121519337966,156.6856880276844,154.46760074539523,155.32525634765625,276600
2025-07-15,155.50270521521296,155.7590120983507,151.8847603468732,151.97348022460938,254200
2025-07-16,151.73689710833995,153.4029296552156,151.37214976104823,152.7818603515625,261900
2025-07-17,152.5452588316346,154.1915706701163,152.31851019393284,153.81695556640625,397700
2025-07-18,154.62533756237983,154.98023213510643,152.72270372898328,154.16200256347656,243100
2025-07-21,154.20143682439874,154.44789098408017,153.03818041103906,153.2451934814453,205900
2025-07-22,153.8958333551263,157.09973737439896,153.0283099148117,156.9124298095703,449900
2025-07-23,157.7996815698846,159.55443403890214,156.88286424485372,159.36712646484375,450500
2025-07-24,159.11996916058192,162.4020082574344,157.96333091025235,159.9701385498047,431900
2025-07-25,160.19750774667867,161.22561221674488,158.94202169024894,159.14962768554688,296300
2025-07-28,159.35722424092228,160.12830639187274,156.35198291982778,156.88580322265625,308500
2025-07-29,157.23180681567746,157.7755224517839,155.4227248360997,157.0044403076172,388200
2025-07-30,156.98465159805863,157.11315522177728,153.14900170497543,154.99761962890625,580700
2025-07-31,153.99917438750097,155.55123391765005,153.4060273513415,155.3436279296875,679700
2025-08-01,155.17559628438335,156.31244400829624,139.47712391688526,139.73416137695312,1012300
2025-08-04,141.4838983520282,141.4838983520282,135.51295211602235,137.53952026367188,839000
2025-08-05,137.7471203907678,139.4573546226765,136.1159885271504,138.6170654296875,540800
2025-08-06,138.7060232610084,139.15087600319592,135.9775800358165,136.9562530517578,515300
2025-08-07,138.2018575966745,139.87254051260254,137.32203237332467,138.88397216796875,564000
2025-08-08,139.08169477744622,140.42614844511056,138.97295164681316,139.14100646972656,428700
2025-08-11,139.71437362843554,140.00105182700324,137.60871811175764,138.27105712890625,349500
2025-08-12,138.61705933663222,139.47710899953265,137.6383712108668,137.88551330566406,286100
2025-08-13,138.093132926373,139.82312776063122,137.6581603831194,139.813232421875,729900
2025-08-14,138.58740244327777,138.58740244327777,134.8802710493718,136.758544921875,875800
2025-08-15,136.7783310639517,137.36158282800585,136.2939270940797,137.13421630859375,770500
2025-08-18,137.30227391230105,137.97450831438334,135.77988510875218,136.31370544433594,529500
2025-08-19,136.68934510491053,138.91362381311117,136.68934510491053,137.99424743652344,333100
2025-08-20,138.3105996295714,139.6352775807112,137.6680211600025,139.56607055664062,519200
2025-08-21,139.02237682659523,140.27784781496257,138.6368357597722,139.03225708007812,270400
2025-08-22,139.6451775909557,141.69152157825582,139.57598564145147,139.813232421875,356500
2025-08-25,139.35848463440877,139.99116778923627,137.3714676366746,137.964599609375,245800
2025-08-26,137.4802014096915,138.5577372418402,136.43230633558758,138.11288452148438,442900
2025-08-27,137.49997281529963,138.96306488334525,137.44066112579765,137.84597778320312,729100
2025-08-28,138.56762766903606,138.56762766903606,135.8292890396428,137.30226135253906,320800
2025-08-29,137.57906986016718,138.27106476072905,136.76845157218256,137.6779327392578,370700
2025-09-02,135.84906508939116,136.94637659553402,134.6133546133004,134.85061645507812,310600
2025-09-03,134.5243943101381,134.62324210292473,132.9031426817368,133.67422485351562,382300
2025-09-04,134.79130216014153,136.8969425133348,133.49626493537275,136.87718200683594,401800
2025-09-05,137.43077574465525,139.21020178510477,136.0566663464884,137.03533935546875,440800
2025-09-08,137.00570288208334,138.39958806786993,136.10610193939624,136.71902465820312,616100
2025-09-09,136.67946624256135,137.88552093868483,133.55560145550504,135.48330688476562,637100
2025-09-10,134.57382046722492,135.88861824297987,133.30845412810189,134.69244384765625,685100
2025-09-11,135.18672513791338,136.6992335433112,134.31678014184178,135.53273010253906,477500
2025-09-12,135.05819131395336,135.48328351106477,133.674201778984,133.68408203125,261300
2025-09-15,134.41564821558472,134.6133588811563,133.09097016346266,133.30845642089844,298000
2025-09-16,133.2491099534109,133.871912788061,132.56701052064494,133.66432189941406,474800
2025-09-17,133.8719349467548,135.50308190645822,132.6560000017811,133.11073303222656,377400
2025-09-18,133.35786944137865,133.9608967611341,132.53737095397892,132.9624481201172,254800
2025-09-19,133.12062346030297,133.5555959668464,131.81570594067267,132.90313720703125,877200
2025-09-22,132.58677892796058,133.39741219498762,131.1533578735173,131.20278930664062,402100
2025-09-23,131.48947627590215,132.41873297707602,130.46137178622766,130.51080322265625,319700
2025-09-24,130.49103409799787,131.7860563410793,129.83857530726212,129.9967498779297,353300
2025-09-25,129.99674318999885,131.0050871706818,128.7808082948073,129.32452392578125,388700
2025-09-26,129.82869272268246,130.9161089366979,129.46292723339218,130.7777099609375,274400
2025-09-29,130.88645346701895,131.16325141933544,129.85834894189443,130.75794982910156,540600
2025-09-30,130.20434429084327,132.23089734514227,130.20434429084327,132.13204956054688,310400
2025-10-01,131.80581420869075,132.82403835835518,130.7974703117304,132.60655212402344,310100
2025-10-02,132.1320554290962,132.85370613455356,131.44006056877018,131.65753173828125,398500
2025-10-03,130.95565622479634,132.0529677443783,130.91610504183745,131.69708251953125,402000
2025-10-06,131.37085466398543,131.67730845586786,129.90777764901935,130.37240600585938,447100
2025-10-07,130.59976556964224,130.99518687665005,128.32605534345748,129.09713745117188,438800
2025-10-08,129.6803765561391,130.5008900185806,128.77089557092012,130.10546875,361300
2025-10-09,130.19444872342635,131.32141603944422,128.71159619791044,129.11691284179688,554200
2025-10-10,129.4431381350315,130.5008983927555,128.40513838295638,129.43324279785156,426000
2025-10-13,129.49258620457584,130.8370398948493,128.67207258406597,128.73138427734375,311400
2025-10-14,128.55343940983934,129.5617834901798,127.56487092285874,128.31619262695312,337400
2025-10-15,128.3161756767913,128.89942738681822,126.39835065189028,126.63561248779297,438300
2025-10-16,126.97171654630597,128.0195965446806,126.38845731965263,127.68348693847656,352700
2025-10-17,127.68349986264782,128.61275658450555,127.37704606806854,127.86143493652344,339700
2025-10-20,128.12834444492697,128.6028530293001,126.55652438869629,128.51388549804688,240500
2025-10-21,129.11692867987182,130.263671727181,127.64395622680965,129.077392578125,311600
2025-10-22,129.1564481138655,130.59976453326686,128.49410913348765,128.5731964111328,357500
2025-10-23,128.73197123448563,130.50805690169727,128.65259098954968,129.75396728515625,378600
2025-10-24,129.73411268037526,129.87302431778892,127.54127703952456,127.87864685058594,489300
2025-10-27,128.1366224648553,128.89071205489756,127.45198112404552,127.7794189453125,521700
2025-10-28,127.74964944095181,128.10685294985234,126.47959588491281,127.10470581054688,413500
2025-10-29,126.29107194406481,126.50936382227088,122.46106236313027,123.34414672851562,651100
2025-10-30,123.07624728804052,124.54474389238906,122.08401698830151,123.39376068115234,702600
2025-10-31,114.39423553008093,117.18240033192052,102.42794018569283,115.108642578125,2758200
2025-11-03,115.18801418737364,115.18801418737364,107.44862223530946,112.24109649658203,1661000
2025-11-04,113.47145606328911,115.0987131260131,111.65567282386979,113.29285430908203,1029100
2025-11-05,113.44168707726934,115.13839990799084,111.8938027289756,114.67205047607422,896900
2025-11-06,114.12632587945619,116.05125508565277,112.91581127124762,115.24755096435547,880300
2025-11-07,115.32692576494694,116.01155949259733,113.7988902652183,115.31700134277344,697200
2025-11-10,115.08879219606841,115.86273063108003,113.11425598749823,115.47576141357422,514000
2025-11-11,116.05125494853503,118.58144524090463,116.05125494853503,117.35107421875,484800
2025-11-12,117.42052991643766,118.74019803055835,116.99387815530137,117.24193572998047,547500
2025-11-13,117.3808436819808,120.93302228660532,117.3808436819808,119.26607513427734,679400
2025-11-14,118.8394216459119,119.75227929014665,117.47014653473461,117.68843841552734,521200
2025-11-17,117.56937122538191,118.56160156840677,116.65652112662708,118.41276550292969,820200
2025-11-18,118.73028226930452,119.1767828797841,117.14270772067383,118.38299560546875,817400
2025-11-19,118.5814455351289,118.5814455351289,116.79542796312874,117.08317565917969,598900
2025-11-20,117.08318073043249,118.68067219177061,116.45807833821543,117.65867614746094,507400
2025-11-21,117.21216086173891,121.29022793939164,117.21216086173891,120.57582092285156,509100
2025-11-24,119.91103668470342,121.44899676039621,119.50422617630296,120.5262222290039,740000
2025-11-25,121.45891525209124,123.11593804438662,121.45891525209124,122.48091125488281,543600
2025-11-26,122.06416725085363,123.55251268958358,122.06416725085363,122.84803009033203,538000
2025-11-28,122.66943052847252,125.10039933060551,122.66943052847252,123.78073120117188,315700
2025-12-01,123.90971816318398,123.9890984046682,122.07409360703122,122.32215118408203,536800
2025-12-02,122.80834273936739,122.8976474041654,119.86142506313116,120.65520477294922,325400
2025-12-03,120.50636459439258,123.29453683156571,120.46668204485655,121.11162567138672,543100
2025-12-04,121.25053931737644,123.11593712141129,120.9826404679227,121.07193756103516,708000
2025-12-05,121.0421717426921,122.55036603254122,119.6828210814482,120.96279907226562,537000
2025-12-08,119.98048683677486,121.15131890116776,118.37307858523162,119.13709259033203,496600
2025-12-09,118.67074319979267,118.91880077653559,114.46368881786525,114.82089233398438,640300
2025-12-10,115.2673979458709,116.88473826129054,114.23547747342825,116.25962829589844,734700
2025-12-11,117.04347933154511,117.74796190032998,116.24969967395411,117.09309387207031,389700
2025-12-12,117.5991381446397,120.69489957224027,116.73590258212603,120.5262222290039,656400
2025-12-15,120.53613763713133,121.508519071394,119.54390735802136,121.37953186035156,588600
2025-12-16,121.71688801826957,122.88772006482098,118.59136108661724,121.87564849853516,644800
2025-12-17,121.16124681536517,123.63189822994175,119.14702044648554,122.66943359375,567300
2025-12-18,122.70911937736454,123.15562755440962,121.08186229106413,121.66728210449219,457100
2025-12-19,122.38168448192317,123.36399795279324,120.31785116207733,120.44683837890625,1300400
2025-12-22,120.44683702770696,122.73888662712453,120.1293236305144,121.78634643554688,527800
2025-12-23,121.91534038479175,122.07409329724082,120.37738038293297,121.2406234741211,311700
2025-12-24,121.57798039532113,122.21300719710743,120.81396637664959,121.79627227783203,198000
2025-12-26,121.41922894554897,122.52060522415447,120.77427771310445,122.29238891601562,306000
2025-12-29,122.33208105068077,123.34415267923492,121.36961639767443,122.25270080566406,400200
2025-12-30,121.8458854019756,123.3342308707125,121.46883303835433,121.78634643554688,289800
2025-12-31,120.57582164498164,122.37176361957204,120.40714431232067,121.01240539550781,314300
2026-01-02,120.79411858954116,122.04433092844077,119.84157837851366,121.58790588378906,295100
2026-01-05,120.81396333104647,123.61205247154165,120.81396333104647,122.04432678222656,435700
2026-01-06,121.2703893294616,121.89549169761267,119.17678277613919,119.62328338623047,777200
2026-01-07,119.73243542753909,121.00248907397176,116.6962129559037,119.50422668457031,478500
2026-01-08,118.98826090452039,122.41146012961788,118.59136725333443,121.48868560791016,330000
2026-01-09,121.13148146291526,123.9990265337246,120.51629592819934,122.88772583007812,429100
2026-01-12,123.0365583546262,124.32646078477775,122.02448676997972,124.15777587890625,477300
2026-01-13,124.07840343065625,124.46537264637453,121.58790323017156,122.54044342041016,351900
2026-01-14,123.14570153346037,126.1720069370604,123.14570153346037,125.86441040039062,611700
2026-01-15,126.15215809530929,126.23153833510459,123.5525120178855,124.13793182373047,381000
2026-01-16,123.03655288156622,124.22722617172847,122.28245576040153,123.74103546142578,363400
2026-01-20,123.92956647771405,124.55466884396232,122.4809111423571,122.85795593261719,275100
2026-01-21,123.34415338455338,124.64398030125511,122.93734287422093,124.0387191772461,421000
2026-01-22,124.07840219082979,125.42783600604635,123.09608874217598,123.5029067993164,369700
2026-01-23,123.37391303470616,125.29884225734148,122.90757114819523,125.0210189819336,429500
2026-01-26,125.43775721229031,126.00332820078921,124.12801347207618,125.36830139160156,315400
2026-01-27,123.9791728132312,125.3186897727715,123.205234391347,123.77080535888672,303100
2026-01-28,123.23499911768216,124.09824219611878,122.29238336925172,122.73888397216797,347800
2026-01-29,123.32430960117436,124.30661551602421,121.63751348474041,122.88772583007812,386000
2026-01-30,121.9550286222896,124.03871071803064,121.70697104969861,123.97917175292969,512700
2026-02-02,123.23499750184895,124.93171793896286,123.23499750184895,123.860107421875,489100
2026-02-03,122.94725978548665,126.93602225021577,122.72896790883826,123.66165924072266,658700
2026-02-04,125.21552867481128,129.90700134775133,124.20949930267037,128.7216796875,589400
2026-02-05,127.16782066467043,128.5722782146923,121.48028130551128,123.49234008789062,2144200
2026-02-06,127.02836268310486,135.45509216979158,127.02836268310486,133.7816925048828,1045700
2026-02-09,133.05457384055362,139.02101804829903,132.72587004959905,137.9253387451172,1043400
2026-02-10,137.26793457923543,140.37565748193367,137.26793457923543,139.61865234375,622100
2026-02-11,138.48313331396238,139.99715874839507,138.05483198642824,139.4592742919922,584300
2026-02-12,139.60869173387061,141.44145054391814,138.84171623230802,139.95730590820312,572700
2026-02-13,139.9573151020267,142.3677944950846,139.85771755943315,142.01918029785156,471900
2026-02-17,138.71222079286514,143.055071512211,138.71222079286514,141.0928192138672,614700
2026-02-18,140.9135352437976,142.54708376856578,140.2860084572567,141.1625518798828,582000
2026-02-19,141.0928230678908,142.7562676088946,140.4752666602554,142.59689331054688,525500
2026-02-20,142.55704525117903,144.56910401516237,141.44145553591065,144.47946166992188,664500
2026-02-23,142.9255958993581,145.6647789342487,142.5670113304762,145.14682006835938,513500
2026-02-24,145.49544486452967,146.33213709933392,143.28417595914058,143.57302856445312,429800
2026-02-25,141.8498473766502,143.0949306198296,139.87762457633954,142.1187744140625,348900
2026-02-26,142.95547535989397,143.35389589996325,140.44538340090327,141.23226928710938,331300
2026-02-27,140.97329664666827,143.44353741820976,140.44538259466083,143.1447296142578,344600
2026-03-02,142.43751420451355,142.78614357053576,141.06293752550724,142.1088104248047,335000
2026-03-03,140.08679425249235,140.76412738697488,136.38142559574294,139.2102508544922,347300
2026-03-04,138.79191754238275,138.9612470419286,135.47501391314069,136.50096130371094,389000
2026-03-05,135.46505150535157,135.80371048641027,133.88130933030985,134.20004272460938,452300
2026-03-06,133.47291651624107,133.47291651624107,130.48471689274314,131.5604705810547,398500
2026-03-09,130.45484354440993,133.45299853256722,127.02837201579013,133.22390747070312,545700
2026-03-10,132.82547764917305,133.60240832546756,130.88313575966777,131.6102752685547,503100
2026-03-11,131.2815812945587,132.75575561111177,129.5284943463408,131.50071716308594,563800
2026-03-12,130.7536581494707,132.26766833775483,128.13399830193273,128.35313415527344,620600
2026-03-13,129.6380511924889,129.6380511924889,126.55025410703881,128.14395141601562,660600
2026-03-16,128.97069022910543,130.8931065380538,125.50438295551326,128.54238891601562,370700
2026-03-17,129.45876833048925,130.50464122844355,127.73557748644285,128.99061584472656,276700
2026-03-18,123.89075860801685,126.08210964583039,120.94240244020646,123.73139190673828,910500
2026-03-19,122.52615308632394,124.32903117833895,120.97228404186016,123.48237609863281,518500
2026-03-20,123.77123411184346,123.77123411184346,119.83676660084556,120.58381652832031,1481500
2026-03-23,123.02418368013113,125.84304628604973,122.50622481021608,123.65170288085938,455200
2026-03-24,122.67556308818467,124.72745780194329,122.38670286935901,123.66166687011719,405000
2026-03-25,124.94659356774676,126.07214606142944,123.22339504970952,125.3250961303711,337200
2026-03-26,124.72746089618293,126.83911722505529,123.6317891558115,124.19954681396484,442100
2026-03-27,123.45249678230496,123.72143142045898,121.28107129127055,121.51016235351562,381400
2026-03-30,122.07791483255923,123.45249154525831,120.62365857080745,122.87477111816406,562000
2026-03-31,123.90072145898677,126.46061226934556,123.1038651540704,125.52430725097656,557800
2026-04-01,126.83910993884153,128.13399948450484,125.83308820196113,126.25143432617188,380200
2026-04-02,124.64777023751822,126.5900970135599,123.76127159620845,125.51435089111328,297500
2026-04-06,124.0999305830527,125.6936431780852,124.0999305830527,125.51435089111328,461100
2026-04-07,124.82706080661809,126.6697824199569,124.30910953992999,125.11592102050781,376900
2026-04-08,130.86323514521675,132.1481543754263,127.64592907491694,131.50071716308594,645200
2026-04-09,130.70386349661462,131.91906599267529,126.83912013545304,130.88314819335938,424100
2026-04-10,131.7298075164679,132.178034445579,130.3353203595067,130.98275756835938,407400
2026-04-13,130.28551770076956,131.89914077103793,127.07818194963497,131.59036254882812,396300
2026-04-14,130.71381054193466,132.197955189354,130.45483870763653,130.4946746826172,315500
2026-04-15,130.29547082253353,130.51460669263554,128.0941721257409,129.14002990722656,407100
2026-04-16,126.40084558822308,129.81735412824597,126.40084558822308,127.78536987304688,393800
2026-04-17,129.14002424182965,131.7796097617975,129.14002424182965,130.11618041992188,401100
2026-04-20,130.05641512792803,131.47082778766443,129.1499909308814,130.405029296875,403600
2026-04-21,130.18589466096142,131.72980084865796,126.1916732788086,126.1916732788086,310200
2026-04-22,126.77935427393615,126.77935427393615,122.47634691200882,124.06009674072266,458900
2026-04-23,124.88682675562279,126.93872910578784,123.95052932532681,124.44856262207031,440800
2026-04-24,123.9206456254592,123.9206456254592,122.08787918491913,123.5919418334961,440900
2026-04-27,123.55209914216728,125.73348737793874,123.05406585359005,124.23938751220703,359700
2026-04-28,125.62392082821759,126.15183490401432,123.23335949687649,125.2752914428711,354300
2026-04-29,124.64776713863216,125.4047798425139,122.30701227202618,122.41658020019531,448400
2026-04-30,122.94449532386469,125.58407321741664,121.40058912214994,123.19351196289062,764800
2026-05-01,126.70962950793603,127.97463072857443,117.4362520229959,118.55184173583984,989400
2026-05-04,118.21317963909578,121.27110367417347,116.9979772200526,120.12562561035156,739600
2026-05-05,120.42445055667139,123.22339520339091,120.34476340674007,121.55000305175781,628600
2026-05-06,123.18000030517578,126.38999938964844,121.66999816894531,122.62999725341797,917000
2026-05-07,122.94000244140625,126.47000122070312,122.56999969482422,125.11000061035156,749700
2026-05-08,125.2300033569336,125.86000061035156,120.38999938964844,120.98999786376953,794900
2026-05-11,121.22000122070312,121.22000122070312,119.44000244140625,119.95999908447266,706100
2026-05-12,120.44999694824219,120.86000061035156,117.13999938964844,118.05000305175781,696600
2026-05-13,118.0,118.75,116.43000030517578,117.87999725341797,679500
2026-05-14,118.7300033569336,120.16000366210938,117.04000091552734,117.98999786376953,531000
2026-05-15,117.91000366210938,117.91999816894531,114.47000122070312,114.66999816894531,447000
2026-05-18,115.5999984741211,117.31999969482422,115.16999816894531,115.80999755859375,433100
2026-05-19,115.88999938964844,116.04000091552734,112.44999694824219,113.61000061035156,575800
2026-05-20,114.06999969482422,115.44999694824219,111.55000305175781,115.26000213623047,562600
2026-05-21,116.5,116.5,112.7699966430664,115.51000213623047,345600
2026-05-22,115.80000305175781,116.80000305175781,114.70999908447266,116.2300033569336,405800
2026-05-26,116.19999694824219,116.97000122070312,115.37000274658203,116.37999725341797,344500
2026-05-27,116.94000244140625,118.11000061035156,114.7300033569336,115.30000305175781,464000
2026-05-28,114.80999755859375,116.33999633789062,113.3499984741211,115.98999786376953,510100
2026-05-29,115.05999755859375,117.26000213623047,113.75,115.8499984741211,559600
2026-06-01,114.69000244140625,115.12999725341797,112.02999877929688,112.37999725341797,706800
2026-06-02,111.94999694824219,113.05000305175781,111.23999786376953,112.18000030517578,452400
2026-06-03,111.69000244140625,114.0199966430664,111.69000244140625,112.52999877929688,372600
2026-06-04,114.94999694824219,115.76000213623047,111.54000091552734,112.55000305175781,337600
2026-06-05,113.08999633789062,114.58999633789062,111.9800033569336,113.36000061035156,466300
2026-06-08,112.26000213623047,112.63999938964844,110.94999694824219,111.94000244140625,422200
2026-06-09,113.27999877929688,116.1500015258789,112.66999816894531,115.9000015258789,444400
2026-06-10,116.1500015258789,116.55000305175781,113.37000274658203,114.66999816894531,496800
2026-06-11,115.11000061035156,116.9749984741211,114.26000213623047,116.58000183105469,300754
