Date,Open,High,Low,Close,Volume
2023-06-16,111.25608649771847,112.75681473831688,110.97710364846094,112.6990966796875,975300
2023-06-20,112.43935080762263,112.50669098924244,111.31380462646484,111.31380462646484,297000
2023-06-21,110.76546986182699,110.8809133278712,109.11081687950966,109.30322265625,317800
2023-06-22,109.62068186738438,109.7265032121453,108.08147231567553,109.71688842773438,266200
2023-06-23,108.61057596542958,109.40904342074265,107.8121085101165,108.5432357788086,366000
2023-06-26,108.76448767860848,110.02472159161579,108.76448767860848,109.29359436035156,142300
2023-06-27,109.50523422525207,110.45761888844028,108.92803162148738,110.36141967773438,218300
2023-06-28,110.4479902945496,110.4479902945496,108.20652019226185,109.20700073242188,204800
2023-06-29,109.12043591353498,110.97710940421138,108.27387253843727,110.41914367675781,225900
2023-06-30,110.84242323774862,111.86214808391983,110.47685596117455,111.4581069946289,279800
2023-07-03,111.02520912022894,112.57403332715113,111.02520912022894,112.11227416992188,85700
2023-07-05,111.22724193095031,111.22724193095031,108.47590157241842,108.64906311035156,384200
2023-07-06,107.98527198550394,108.68754023538193,107.38882507929975,108.19691467285156,277700
2023-07-07,108.37007152236167,110.94825013592458,108.31234612133264,109.46675872802734,333400
2023-07-10,109.00499442816958,110.91939335472682,108.71639677529014,110.12092590332031,248000
2023-07-11,109.96698645137866,111.16949485834249,109.0627051202215,111.12139892578125,226700
2023-07-12,112.15075804421535,113.08390584398397,111.37152752074805,112.42974090576172,199400
2023-07-13,112.41049037080688,112.91073800474413,112.13150752486675,112.56441497802734,190200
2023-07-14,113.21857971119438,114.32488163094602,112.26618771937571,113.85350036621094,271600
2023-07-17,113.901608790538,114.99829597658342,112.70872239053817,114.72893524169922,234200
2023-07-18,114.48844594179518,115.79677594401473,114.19021880483534,114.5557861328125,189100
2023-07-19,114.23831743764053,114.87324550384733,113.81503206016934,114.58464050292969,247200
2023-07-20,115.22918771485246,115.6524731083447,114.34414310985082,114.7962875366211,175800
2023-07-21,115.10412706121498,115.4889312891488,114.35376285348565,115.28690338134766,184300
2023-07-24,115.46005920763793,115.91220360263762,114.19983257951267,115.18108367919922,163400
2023-07-25,115.13297461841519,116.51826676509069,114.76741467505558,115.97953796386719,250700
2023-07-26,115.98920870280928,116.22087615837353,114.69571673304294,115.78649139404297,306900
2023-07-27,115.89265748696491,116.5876671201312,114.61847561435158,115.00459289550781,407800
2023-07-28,118.23831895027517,122.58212207343301,117.64949171552556,119.4835433959961,513000
2023-07-31,119.23257390513415,119.62834619522816,116.63594976374563,117.24407958984375,746500
2023-08-01,117.03171151335569,118.24797849712147,116.5587216614483,118.1900634765625,365300
2023-08-02,117.22476678755726,118.08387390872966,115.8154449105264,117.99699401855469,329200
2023-08-03,117.30198526491023,118.46999212502719,116.52975802792562,116.61663055419922,195900
2023-08-04,116.43323498490459,117.89081698819571,116.29809502916336,116.4525375366211,116500
2023-08-07,116.53941151793796,117.4371311010002,116.32704663695499,117.07997131347656,140300
2023-08-08,115.91198379810757,117.18616585096295,115.55482397371472,116.91588592529297,270100
2023-08-09,116.91587969970159,119.10708386434126,116.33670004459134,117.60123443603516,287500
2023-08-10,117.57226804078596,119.28082727342787,117.57226804078596,117.98734283447266,216000
2023-08-11,117.29233942455933,118.94298372960004,117.29233942455933,118.35415649414062,226500
2023-08-14,117.79427784821463,118.72095489501953,117.35990051409733,118.72095489501953,145700
2023-08-15,118.37345297215884,118.66304277835748,117.74602066635293,117.8521957397461,249000
2023-08-16,117.5047040691571,118.88506846613971,117.27302926695963,117.32129669189453,291100
2023-08-17,117.72672381164278,118.4024309795417,117.3985288684787,117.41783142089844,186600
2023-08-18,117.16684484694098,119.13603644494522,117.16684484694098,119.01055145263672,443100
2023-08-21,118.87541361000102,120.13994060696739,118.78853371795883,119.4835433959961,358800
2023-08-22,119.57042216370789,121.34655144459086,118.49895014757142,118.6823501586914,429600
2023-08-23,118.7885236200675,119.27116837050114,118.064556494417,119.10707092285156,305000
2023-08-24,119.20360799225472,121.1052296403174,118.33484589865057,120.76737976074219,278400
2023-08-25,121.21140038603271,123.2481617893748,120.64188312464738,123.11302185058594,493000
2023-08-28,123.19990731647617,125.08222642954905,123.19990731647617,124.91812896728516,331900
2023-08-29,125.2946173413664,127.37964681699768,124.90849258894215,127.2445068359375,472400
2023-08-30,127.7753889970742,128.63449621483008,127.12864668520417,128.27734375,298900
2023-08-31,128.6538033664297,129.08818076307503,127.6499086113127,127.95879364013672,305800
2023-09-01,128.48004703340644,129.14608446097918,127.92017731803307,127.94913482666016,252000
2023-09-05,127.10931616019016,127.39890596028071,122.939273117993,123.14198303222656,325300
2023-09-06,123.35437500302818,123.5667325565623,121.8195605086888,122.02227783203125,291100
2023-09-07,121.90641707792996,122.75586922319013,120.7963326323069,121.00869750976562,328600
2023-09-08,121.15349629318462,122.27322836758205,120.77703394911717,120.96043395996094,238800
2023-09-11,122.5821305125376,123.48950513961789,122.02226811297531,122.6014404296875,333500
2023-09-12,121.73268738421739,122.87172955032656,121.06663511962672,122.13810729980469,258000
2023-09-13,121.41412121828247,122.1960034151346,120.76737897237824,121.01835632324219,279300
2023-09-14,121.636140247531,122.88136467115167,121.636140247531,122.360107421875,217900
2023-09-15,122.09947397972398,122.78482868131519,120.8252920593083,121.55891418457031,589200
2023-09-18,121.97399375623068,121.97399375623068,120.58397438341775,121.27898406982422,175100
2023-09-19,121.32724871079844,121.32724871079844,119.7538219944691,120.96043395996094,218600
2023-09-20,121.47204622557736,121.72302359708121,120.2364766498286,120.30404663085938,206200
2023-09-21,120.01446098001375,120.03376353212249,117.94874176933433,117.97769927978516,335700
2023-09-22,118.08388014980025,118.63409493473912,117.87151525656503,118.4217300415039,341200
2023-09-25,117.755680884051,119.8214001203192,117.25373351267645,119.73452758789062,258800
2023-09-26,119.24222158838647,119.9082737605531,118.95263913082606,119.3097915649414,547000
2023-09-27,119.7345215441092,120.130286446155,118.60513449209238,119.2325668334961,362400
2023-09-28,119.56077415880812,121.27898852184504,118.98160185373365,121.1148910522461,219300
2023-09-29,122.0994808328885,122.42768313020652,120.45849144002428,120.69981384277344,330900
2023-10-02,120.2075027230005,121.12453218556013,119.68624549855679,120.70945739746094,244100
2023-10-03,119.71521017927378,120.96043461818644,118.23831830380705,118.60513305664062,236300
2023-10-04,119.26154096613664,120.33301308264014,118.08388639739762,119.91793823242188,208200
2023-10-05,119.65729977912974,120.59363188391382,118.53756765542609,119.45458984375,466700
2023-10-06,119.31946365266154,122.29255777705299,119.10709873455127,122.02227783203125,491700
2023-10-09,121.45273229316045,122.80413915172828,121.32724730145394,122.53385925292969,275700
2023-10-10,122.82345832231506,124.14590785132584,122.11880097146492,122.14775848388672,322000
2023-10-11,123.10337829589844,123.26747575611641,122.25392612132153,123.10337829589844,212900
2023-10-12,122.8041363601095,122.9778887717552,120.71910742036091,121.06661224365234,189300
2023-10-13,121.62647642743022,122.27321862188774,121.04730420307162,121.59751892089844,324900
2023-10-16,122.9392835826247,123.00685355978747,121.79058660628245,122.31184387207031,275200
2023-10-17,121.6361379330477,123.88525698147005,121.6361379330477,123.05511474609375,314400
2023-10-18,122.46628968040957,123.23851691314512,121.89676500786375,122.37940979003906,287300
2023-10-19,121.70371751008852,123.0454694977166,121.03766531314531,121.3658676147461,443900
2023-10-20,121.55892290885227,122.08983514903522,117.69776440446827,117.97769927978516,446500
2023-10-23,117.49505685595796,118.88507630246588,117.00275707455714,117.2826919555664,379000
2023-10-24,117.89082303186629,119.47389747848429,117.4950581024996,119.05882263183594,312100
2023-10-25,118.57457241634825,119.88205825668655,118.05157660238528,118.51646423339844,431300
2023-10-26,117.44141263972791,121.44135246402949,117.44141263972791,119.54307556152344,576000
2023-10-27,119.58181419956955,119.94015782086082,116.56975044747777,117.35424041748047,364000
2023-10-30,118.08062663343416,118.4680317477671,117.0443222013479,118.32275390625,283100
2023-10-31,118.65205658315872,119.0200873955642,117.99347007365428,118.41960906982422,422900
2023-11-01,118.2646378957484,119.54306951601366,117.78038338217613,119.0588150024414,360500
2023-11-02,119.82394517295023,120.37599505580931,119.10725051904181,119.6883544921875,384300
2023-11-03,120.5115690585658,122.00307372967934,120.5115690585658,121.40259552001953,278000
2023-11-06,121.32512525461992,121.77064591937194,120.82150380061947,121.24765014648438,173500
2023-11-07,120.69560295651807,121.05394658334917,120.25976944156056,120.6278076171875,205000
2023-11-08,120.94740785382807,121.53819896716833,120.49221480588676,121.17985534667969,175800
2023-11-09,121.73191177707123,121.73191177707123,120.16292436681583,120.47284698486328,118600
2023-11-10,120.32754412310491,121.82873587944931,119.98856748464743,121.76094055175781,195600
2023-11-13,121.44135499845274,121.52852465947475,120.45347897141063,120.60843658447266,183100
2023-11-14,121.98371434677951,123.83357021629412,121.36386913343608,123.82388305664062,267400
2023-11-15,123.79483768270165,124.74397988884898,123.33963720572989,123.68830108642578,388600
2023-11-16,123.63018988768,124.56963752144287,122.84569248067687,123.53334045410156,217000
2023-11-17,124.51152524922635,125.01515410991232,123.5914445767463,123.9013671875,162700
2023-11-20,123.43648091454516,123.6301871665767,122.44860489116716,123.31057739257812,213900
2023-11-21,123.4461626487234,124.25971409322274,123.19434822671913,123.88199615478516,160600
2023-11-22,124.40498620938287,125.13136800676534,123.34931487730645,124.5212173461914,174800
2023-11-24,124.90861400007235,124.90861400007235,124.06601585130784,124.48246765136719,65900
2023-11-27,123.79481793981684,124.25970550298354,122.85536304382997,123.00064086914062,367500
2023-11-28,123.00065360969789,123.0103407694919,121.53820282459247,121.65442657470703,218000
2023-11-29,121.68346835701487,122.41953725501332,120.98614070513605,121.4219741821289,331800
2023-11-30,121.4994637924141,123.1265593780295,120.87961855876425,122.89411926269531,301000
2023-12-01,122.43892176614067,124.49215638137169,122.43892176614067,124.06602478027344,218300
2023-12-04,123.4364909661968,124.821466766305,122.89412819461886,124.37594604492188,192000
2023-12-05,124.21129359931997,124.63743997307381,121.91592434406154,122.0224609375,178000
2023-12-06,122.40986986130585,123.29121672727666,121.91592812994705,122.3905029296875,179500
2023-12-07,122.2645865924303,123.10719216867501,122.02245931767312,122.5067138671875,254000
2023-12-08,122.38080955024061,123.48490932483753,121.66411489056881,123.31057739257812,265800
2023-12-11,123.25246840515973,123.65924044805773,122.36143442992014,123.55270385742188,338000
2023-12-12,123.63017515188055,124.06600863474264,122.69072024095559,123.46553039550781,210300
2023-12-13,123.17497167895708,124.92797794750753,123.17497167895708,124.54056549072266,425000
2023-12-14,125.01515711630776,125.91586349088605,122.88443265064014,123.3880615234375,412900
2023-12-15,123.15562796620185,124.53090919591942,122.0030997047044,122.01278686523438,713000
2023-12-18,122.71979057892658,123.2040451423613,121.91592623023179,123.04908752441406,240500
2023-12-19,123.68829501618633,124.0950744497936,122.06119944917108,122.2549057006836,659100
2023-12-20,122.05151063829354,122.94254460492192,121.50914791967111,121.61568450927734,346400
2023-12-21,122.26457917418375,122.26457917418375,120.91835219934543,121.94497680664062,421900
2023-12-22,122.41955104807825,123.03939627755607,122.14836968382394,122.29364013671875,312200
2023-12-26,122.16772810971344,122.87474295084685,121.63504518905556,121.86749267578125,274700
2023-12-27,122.1483674460001,122.48734414510773,121.09268870976447,121.3348159790039,283100
2023-12-28,121.04426606095606,121.8384431978116,120.4825290304847,121.25733184814453,343600
2023-12-29,121.2476400832078,121.41228483439495,119.66896573612787,119.72708129882812,313500
2024-01-02,118.74888181378616,120.1919580665125,118.43895924831868,119.0103759765625,313100
2024-01-03,121.20889885443795,123.25245336857849,119.27188091793599,121.41228485107422,531700
2024-01-04,121.23797252388182,121.95466720719149,120.22103498730522,120.3082046508789,353300
2024-01-05,119.88205394447617,120.45347814976842,119.11693087689318,120.28882598876953,423000
2024-01-08,120.16293116633383,121.21860999291629,118.51646855025369,120.43411254882812,352400
2024-01-09,119.81425753742421,120.71497127842206,119.09756288636142,120.70528411865234,250300
2024-01-10,120.54063528985738,121.47040308972274,120.317882346619,121.24765014648438,279600
2024-01-11,121.43166549949392,122.97159877535763,121.00552652992823,122.84568786621094,323100
2024-01-12,123.86263082764847,123.9401133306804,121.95466667803164,122.4486083984375,231700
2024-01-16,121.91592138408514,122.82632229167827,121.55757775043605,122.81663513183594,257500
2024-01-17,121.97403476171849,123.26214621035574,121.92560635251516,122.7004165649414,336900
2024-01-18,123.31058632417547,125.91587094774778,122.33239000069315,125.07327270507812,444200
2024-01-19,125.62532076349432,127.32021167365423,124.49215212153315,126.68099212646484,418000
2024-01-22,126.77781705766294,127.65916375877843,126.44852755777603,127.0586929321289,266200
2024-01-23,127.64948900311698,127.69791740871402,126.22577959255632,127.67854309082031,217800
2024-01-24,127.95941976328007,128.1240645397181,126.42917358557357,126.66162109375,294400
2024-01-25,127.8722341919708,128.21121823234927,126.27420035195492,127.1167984008789,332300
2024-01-26,127.53326850275722,128.4146153119421,127.26208714274277,127.55264282226562,219900
2024-01-29,126.92311919612955,128.41461669224083,126.3807564702709,128.0853271484375,187800
2024-01-30,127.87225396638219,128.89887123722548,127.48485624170483,128.0853271484375,228400
2024-01-31,128.6002301485407,128.98884744345068,125.48165603714608,126.18115234375,537500
2024-02-01,126.74461584270689,127.37609846167305,125.91881719553733,126.7834701538086,298800
2024-02-02,126.25887748257338,126.98751824296068,125.02504164419864,126.39488983154297,344800
2024-02-05,125.45250566991007,127.70642657703459,124.40326125954347,126.92920684814453,319500
2024-02-06,126.76402567745315,127.65782300524367,125.61763828666655,127.39552307128906,369700
2024-02-07,127.66755522496554,128.64878592190652,125.68564443955925,128.04644775390625,393000
2024-02-08,127.89105007378835,130.99991494647986,127.79389202417045,128.3573760986328,620700
2024-02-09,128.3476242497133,135.2454284381518,127.76470579111236,135.00254821777344,650900
2024-02-12,135.19687008272106,136.4695602600504,133.5938514887977,133.69100952148438,491300
2024-02-13,132.79721865694546,133.41899155451992,131.13591108923504,132.05885314941406,275900
2024-02-14,132.37943171551453,133.5452686480157,131.32047749858393,133.26351928710938,335000
2024-02-15,133.26354322870253,133.8853161197666,130.73759734435762,131.19419860839844,471400
2024-02-16,131.51480751987208,134.06991277521306,131.19420377563176,133.5841522216797,453900
2024-02-20,133.2343951113686,136.14895823746613,133.0498037415049,135.71177673339844,373000
2024-02-21,135.1191419156268,136.11980735566468,135.03170858379454,136.012939453125,276300
2024-02-22,136.4695496025818,138.36401249814983,136.08094715065158,137.44107055664062,295700
2024-02-23,137.92684167751443,138.00456513874505,136.59586261149656,137.33421325683594,190300
2024-02-26,137.47021310589366,138.01426246079586,136.79015141226589,137.8782501220703,199200
2024-02-27,137.87826692977475,138.1308570684184,135.81864702821983,136.31411743164062,244600
2024-02-28,135.67288950179886,137.21761901910057,135.36201051839788,136.4112548828125,189600
2024-02-29,136.62501092668225,137.59653198323437,135.84779111659356,136.45985412597656,250600
2024-03-01,135.89638059573363,136.78045355883455,135.58548671807122,136.29469299316406,151400
2024-03-04,136.68329367940922,138.07256161225055,136.55699120397486,137.91712951660156,260300
2024-03-05,138.21828615058587,139.13151819196344,137.7033812462743,138.46116638183594,190200
2024-03-06,138.85947150350745,139.54925784719796,138.42229007474432,138.99549865722656,184000
2024-03-07,140.3847801035931,141.0065529311518,139.74357270585753,140.53050231933594,250100
2024-03-08,140.58879704632386,140.9385451659915,138.8983453305581,139.01492309570312,185200
2024-03-11,138.72349095328647,139.29669966708138,137.9365612363938,138.6749267578125,226700
2024-03-12,138.73320167882696,138.78178069364364,137.4507868439898,138.35430908203125,242200
2024-03-13,138.9274874603586,138.9274874603586,136.91643209967154,137.139892578125,336800
2024-03-14,137.33420459583292,137.58679471072702,136.36268362807073,136.91644287109375,235200
2024-03-15,136.05178467736658,138.3542993647007,135.76034025740415,136.9844512939453,599500
2024-03-18,136.91646004723472,137.2759329308813,134.9734178679561,135.2940216064453,299700
2024-03-19,134.92484757362786,136.3238402513451,134.92484757362786,135.53689575195312,253000
2024-03-20,135.65346636305446,136.08093792573945,135.17741579111308,135.98377990722656,220000
2024-03-21,136.31411913042012,137.56738961386023,135.33288818521672,137.1204833984375,255800
2024-03-22,137.96568472502892,138.3931563147583,137.0330329149223,137.55764770507812,276000
2024-03-25,137.17875500009464,139.94759563375453,137.1496105575705,138.88864135742188,316300
2024-03-26,138.76233765022266,140.20018449075258,138.55831173014377,139.12179565429688,314200
2024-03-27,139.57841110454743,141.01625793912805,139.57841110454743,140.54022216796875,218200
2024-03-28,140.69569765564003,141.21060267040687,139.55900488422608,139.79217529296875,247800
2024-04-01,139.6949981759376,139.6949981759376,138.07255988358438,138.2377166748047,204400
2024-04-02,137.80051669276568,137.80051669276568,136.39181439560318,136.62498474121094,202600
2024-04-03,136.66386346242072,137.16905855601934,135.886643662477,136.86788940429688,258700
2024-04-04,137.79079717356296,138.6845945328001,136.9552886905888,137.71307373046875,403600
2024-04-05,137.35362588070365,138.6943146060611,136.93586419637168,137.6936492919922,288300
2024-04-08,137.63536010287416,138.32514644438334,136.39181457314476,136.50839233398438,312500
2024-04-09,136.42098534111196,137.08162736990792,135.3911753903345,136.31411743164062,242600
2024-04-10,135.0219709342602,136.22666219057993,134.5070660416618,135.4300079345703,200700
2024-04-11,135.2940122618255,136.05179747346585,134.50708260544775,135.167724609375,265300
2024-04-12,134.23508612651014,134.99287149746647,132.0880325168797,133.29270935058594,299200
2024-04-15,134.66251781624504,135.82833997705987,133.90473267050376,134.26419067382812,319600
2024-04-16,133.8658771295901,135.42031671806618,133.44813019942495,134.64309692382812,281700
2024-04-17,134.9248215203084,135.50772514064496,134.4099166514401,134.45848083496094,565400
2024-04-18,134.44878861647487,135.46888861629466,134.28363182781587,135.14828491210938,246600
2024-04-19,135.0996946928591,135.93520326422384,134.81796015303922,135.37171936035156,276600
2024-04-22,135.5757619405855,137.1301866853224,135.28430266837407,136.32383728027344,298800
2024-04-23,135.78946255792587,137.1398758390779,135.54658236473858,136.15863037109375,417200
2024-04-24,136.36327776431676,137.28892764322538,136.06122500182607,136.42173767089844,559200
2024-04-25,136.25610434963974,137.62997170625445,135.35968437114948,136.58738708496094,694400
2024-04-26,138.36076128932666,144.7039147819686,138.26331818639707,139.65667724609375,489500
2024-04-29,141.1864289502725,144.22647823824295,140.670013228058,142.62850952148438,676700
2024-04-30,142.004909646234,142.35568398559658,140.36795777329885,140.6797637939453,585100
2024-05-01,141.2741247498313,143.43723060207003,140.87462887898343,141.6541290283203,359600
2024-05-02,142.02441007400986,142.9695517887001,141.56645419708855,142.18031311035156,356500
2024-05-03,143.33978450110888,143.3592760930588,141.12795714823582,143.04747009277344,303300
2024-05-06,143.97312732609103,145.25930484115804,143.38851334738442,145.22032165527344,260200
2024-05-07,144.51877476610764,146.52597749323783,144.51877476610764,145.8828887939453,392900
2024-05-08,145.88292142163866,147.0034428474226,145.64906687839428,146.9254913330078,223500
2024-05-09,147.13009939399845,147.84138644002505,144.82084365124953,145.25930786132812,299100
2024-05-10,145.13263555860982,145.1813571083666,144.2946754530738,144.68443298339844,186300
2024-05-13,144.72339575642974,145.64904569541716,143.09619715747255,144.08030700683594,167500
2024-05-14,144.49930037798347,144.50903874086748,143.69057022672388,144.1095428466797,137600
2024-05-15,144.16802780381772,144.53827890002992,143.00852322640148,143.5054473876953,211100
2024-05-16,143.59313242219713,144.10954816095494,142.67722077451944,143.75877380371094,235500
2024-05-17,144.06083161219536,144.3726227596562,143.3592829457471,143.88543701171875,169500
2024-05-20,143.80748238942644,144.60647413522753,143.27157510477068,144.37261962890625,163400
2024-05-21,144.14854000373177,144.86956548799472,143.32031817870805,144.78187561035156,280400
2024-05-22,144.2751813532465,145.0156982700934,143.69055256202734,144.97671508789062,283300
2024-05-23,144.85008526454678,145.1326464860436,143.77827056011617,143.93417358398438,171700
2024-05-24,144.67469733909195,145.01573336111525,143.58340585698753,144.29469299316406,162300
2024-05-28,143.836724802742,143.9926278204598,142.08286789047202,142.95005798339844,318400
2024-05-29,141.91721406139058,142.94030718947772,140.80643105974093,141.1279754638672,229700
2024-05-30,141.41051313095122,143.2130911357655,141.2838401028418,142.39462280273438,328100
2024-05-31,142.34592221115324,144.04133389426428,142.18028084802555,143.90492248535156,358900
2024-06-03,144.69416726211233,144.69416726211233,142.53106134998768,144.36288452148438,266200
2024-06-04,143.86593620254556,144.58697641568443,142.9402863143089,144.39210510253906,287900
2024-06-05,143.93417223495806,144.40186643444855,143.31057501306057,144.12904357910156,229200
2024-06-06,144.21673392629532,144.21673392629532,141.67362347740493,142.2192840576172,197600
2024-06-07,142.0341260854559,142.57977170193118,141.7223200944826,141.81976318359375,179100
2024-06-10,141.11823236928575,142.07311231854575,140.2997638413486,141.85874938964844,125800
2024-06-11,141.19616629951713,142.0048963637283,140.65052068215246,141.7710418701172,147700
2024-06-12,142.49208619477034,142.56028446504888,140.37770193248102,142.09259033203125,221300
2024-06-13,142.1510502401924,142.77464737345872,141.3033518363989,142.09259033203125,232400
2024-06-14,141.37156596501876,141.65414204313348,139.99769849820458,141.040283203125,141500
2024-06-17,141.15719922802685,142.92080932391997,140.86489966231062,142.5797882080078,303800
2024-06-18,142.72591745789433,143.9049133850115,142.71617909634801,142.9305419921875,219900
2024-06-20,142.9013112258834,143.74900957513913,141.9366782001001,142.07308959960938,199900
2024-06-21,142.13156155358197,143.3690174832924,141.5859159092863,143.08645629882812,444100
2024-06-24,143.44697885929565,144.43108875923312,142.91107154042683,142.9597930908203,182900
2024-06-25,143.02800632272883,143.0377595544652,140.79670181159935,141.14747619628906,194500
2024-06-26,140.5530858194562,141.07923987621706,139.29615315358203,140.0269317626953,192400
2024-06-27,140.1828155517578,140.19256878158996,138.6238301546421,140.1828155517578,377300
2024-06-28,140.0951327056182,140.62130164013826,136.49969950140468,137.2012481689453,435100
2024-07-01,137.75665211276703,137.85408034544307,134.84327587630082,134.9894256591797,306400
2024-07-02,134.930951195947,136.899185643609,134.2294025783195,136.80174255371094,259400
2024-07-03,137.2694710198884,137.77613352960557,136.96741821316812,137.6007537841797,143300
2024-07-05,137.37662989691958,137.81509405611425,136.14891240990124,137.28892517089844,207000
2024-07-08,138.01971219176104,138.8479338848322,137.87356241897373,137.88330078125,249300
2024-07-09,137.2499499009648,137.6494457254706,136.16839710030692,136.45095825195312,238400
2024-07-10,137.1427912342902,138.0002429282775,136.96741149746342,137.6689453125,142000
2024-07-11,137.5812505259672,139.62743658884474,137.14278633184458,138.4484405517578,244500
2024-07-12,139.73460255093156,141.76129679642114,139.73460255093156,140.8843536376953,263900
2024-07-15,141.0499897624226,141.95616283943195,139.47151295000685,139.7540740966797,319900
2024-07-16,140.16336802752338,141.5762039487746,140.16336802752338,140.85516357421875,178800
2024-07-17,140.64079878113031,142.03415795588407,140.64079878113031,141.14747619628906,242300
2024-07-18,140.9038833004343,143.47622383250132,140.89414493642826,142.5310821533203,434200
2024-07-19,142.83313419872104,142.83313419872104,140.95260408241623,142.19979858398438,251200
2024-07-22,142.24849707102436,143.7782525564522,141.5274568267193,143.41773986816406,235700
2024-07-23,144.08031236478044,144.70390954486243,141.9366979874817,142.29721069335938,234500
2024-07-24,142.3264677844705,142.8721135056052,140.21206831347726,140.4459228515625,250600
2024-07-25,139.60532117118015,140.79777835848,138.03166963150022,138.2955780029297,558100
2024-07-26,139.89854478345555,147.87430433163027,139.13615611277922,143.34884643554688,562800
2024-07-29,143.27064714459567,145.0006898134207,141.8924773081708,144.46310424804688,390900
2024-07-30,144.05258512959574,144.5608342758621,142.12706091227471,142.45938110351562,411000
2024-07-31,143.1924774624523,145.48942760589452,142.1270899126396,143.66163635253906,280600
2024-08-01,143.56388751848672,146.1638212279078,142.14661231103588,143.7104949951172,335300
2024-08-02,143.27064734257746,143.6811631618967,140.50453880627654,142.40074157714844,213500
2024-08-05,140.19175816641953,140.19175816641953,136.33094072792318,137.50384521484375,448500
2024-08-06,138.1391694734234,142.7916967454346,137.92413525905044,141.6578826904297,476000
2024-08-07,142.71350311829138,143.93528166502995,140.2308556736058,140.35792541503906,353600
2024-08-08,141.19852534854527,142.8601413739707,141.19852534854527,142.273681640625,268600
2024-08-09,142.12708691616425,142.12708691616425,140.2308838444139,140.70004272460938,263200
2024-08-12,140.7196023508052,140.92485284608276,139.54669763491262,140.05494689941406,221100
2024-08-13,140.269965572886,142.01956104764162,139.86923348856917,141.1105499267578,212000
2024-08-14,140.87600214284507,141.54064272013753,140.25045192891952,140.65118408203125,115700
2024-08-15,141.72631859410302,144.01348456991627,141.72631859410302,143.69093322753906,277500
2024-08-16,142.8112726046603,143.52478720605873,142.32256111329048,143.40750122070312,250600
2024-08-19,143.01652131100408,144.39467622104934,142.62554321493963,143.65184020996094,191200
2024-08-20,143.66162057853262,144.961594887798,143.66162057853262,144.76611328125,387200
2024-08-21,144.8247581748117,146.19315926720975,144.13079622530404,145.9585723876953,267300
2024-08-22,146.19315832348536,147.004406250368,145.313468716703,145.62625122070312,200400
2024-08-23,146.28111414215468,147.131467288796,146.06607991196887,147.0435028076172,221400
2024-08-26,147.27810094238174,149.2231782196865,146.75029904717988,146.7698516845703,235500
2024-08-27,146.62321074365258,148.1186666577194,146.4570506325663,147.78634643554688,208300
2024-08-28,147.52243900517198,148.53896722738338,147.52243900517198,148.11866760253906,249000
2024-08-29,149.10588837840956,149.45776127089994,147.7961450785867,148.84197998046875,187100
2024-08-30,148.76377592556912,149.9757858009324,148.21642143807964,149.73143005371094,178500
2024-09-03,148.67579943804665,148.9397077997503,146.34952813965234,146.65252685546875,362400
2024-09-04,146.22250262276373,147.49314072912452,146.22250262276373,147.3269805908203,175800
2024-09-05,147.66905729781163,148.33369772794828,146.56456461999554,147.3171844482422,200600
2024-09-06,146.9848515838682,149.6629806227301,146.9848515838682,148.939697265625,319100
2024-09-09,149.12543417994374,149.60436190451168,148.02094141802903,148.48033142089844,241500
2024-09-10,148.4412283503302,149.34045573341479,148.02094361320775,148.08935546875,158100
2024-09-11,147.38560462789548,147.47358403097817,145.27438232544125,147.43447875976562,178000
2024-09-12,147.48335555565916,148.57806454072724,146.58412818731162,148.52920532226562,200400
2024-09-13,148.75401548591918,149.55549462674657,148.47055445109223,148.84197998046875,138600
2024-09-16,149.58477839790754,149.71184813418097,148.6366920052826,149.53591918945312,182900
2024-09-17,150.5231135308557,152.05767450947684,148.4411981620449,149.57501220703125,259900
2024-09-18,150.2885297114155,151.97948195392672,149.26224766629488,149.61412048339844,214200
2024-09-19,151.5201058020689,155.2245321204598,151.5201058020689,153.35765075683594,412400
2024-09-20,152.78099315792383,152.78099315792383,150.9923072031144,152.39002990722656,663300
2024-09-23,152.64413901555898,153.36743736156149,151.24643136778755,152.4388885498047,315800
2024-09-24,152.65389777391002,153.5335873118005,152.50729030807304,153.09375,246200
2024-09-25,153.74863062888252,154.30575394629471,152.35090807666947,153.5922393798828,284100
2024-09-26,154.3741917455601,155.46890073822925,154.13960485529182,154.80426025390625,371600
2024-09-27,155.0974630619756,157.9026770071578,154.6869472219151,156.2801513671875,354300
2024-09-30,155.6937051154717,156.79819789228802,155.34183223436244,156.57339477539062,289800
2024-10-01,156.91547599488553,156.91547599488553,155.45912532444558,156.3583526611328,192200
2024-10-02,156.25083362745252,156.49518936533394,154.39373598527015,155.1658935546875,186900
2024-10-03,154.42305944347365,156.83729535757135,153.10353247642593,155.3516082763672,367000
2024-10-04,156.32902451153032,157.82448038886116,155.73279593261282,156.95457458496094,350500
2024-10-07,155.79144712681207,156.03580287015131,154.4425986510062,155.1072540283203,223300
2024-10-08,154.70649792015064,155.42979624698927,153.5531460383624,155.0876922607422,205900
2024-10-09,154.77495491756642,156.4365712161612,154.55013686472589,156.09446716308594,152600
2024-10-10,154.4816916598629,155.78166590095645,154.4816916598629,155.62527465820312,168500
2024-10-11,157.30648125383263,158.26435174721158,156.72980518537034,157.9027099609375,194400
2024-10-14,161.26503180438755,163.97248287121053,159.76957575499546,163.4153594970703,469700
2024-10-15,163.54240800657777,165.82957403020615,162.73114520381247,164.87168884277344,397300
2024-10-16,164.89125425631357,165.37996574783452,162.1740195566003,162.2913055419922,330000
2024-10-17,163.21007464638268,164.5198326911605,162.76046845617475,164.0995330810547,238200
2024-10-18,165.2822507639931,165.2822507639931,163.9920451241525,164.82286071777344,171500
2024-10-21,164.666468128046,164.6860207657248,162.54546182582345,162.5747833251953,217900
2024-10-22,161.97853331620303,162.613852271317,161.0890748476109,162.06649780273438,228500
2024-10-23,162.7506980951874,164.18751109598531,162.40860899432064,163.86495971679688,318100
2024-10-24,164.96263491104682,164.97243006379486,162.8359053646187,163.22793579101562,547300
2024-10-25,165.5506429301697,166.46210050279106,161.3266145463958,165.5408477783203,518900
2024-10-28,166.51109693898178,167.9909874127624,165.39383645811452,165.72706604003906,350000
2024-10-29,165.65844142123623,166.1092726098588,164.29616765842155,165.33502197265625,338100
2024-10-30,164.99203323960487,166.8051234675815,164.76661013936223,165.65846252441406,290300
2024-10-31,165.71726236332717,166.8835285592377,164.511800602721,164.56080627441406,329900
2024-11-01,164.74701596713246,167.57937026995276,164.27657947244072,166.0308837890625,316300
2024-11-04,166.24647677298762,167.16772943786702,164.82538726194682,164.90379333496094,191800
2024-11-05,164.39418823784416,166.96192375931884,164.39418823784416,166.9129180908203,206200
2024-11-06,171.6563823010005,171.6563823010005,168.7064263444236,169.70608520507812,264100
2024-11-07,170.72532182060624,171.96019883841325,170.07848290217686,171.22515869140625,412300
2024-11-08,171.21535702617146,174.29272466184403,171.0095541493443,172.25421142578125,309200
2024-11-11,172.80303582480352,174.47891889193963,172.39140020556138,172.63641357421875,189100
2024-11-12,173.12645192520313,173.70469487939047,171.46036389745427,172.19540405273438,179800
2024-11-13,171.99940490722656,172.87165200345066,171.55838378296605,171.99940490722656,168400
2024-11-14,171.65637889220199,172.28361258645606,170.4411220214521,170.62733459472656,198200
2024-11-15,169.51987152643795,170.29410728655165,162.8555040894364,163.16912841796875,620500
2024-11-18,163.07110850953194,164.47259285308147,161.05220060257204,163.36512756347656,384400
2024-11-19,163.1005165746191,164.32558356152833,162.8849035885686,163.57093811035156,287600
2024-11-20,163.66896746747955,165.57027403316428,162.3458889942029,165.3644561767578,221800
2024-11-21,165.32523474432278,166.8345106222636,164.39418686832857,166.4915008544922,205100
2024-11-22,166.78553130251822,168.63784714971507,166.78553130251822,168.08900451660156,241600
2024-11-25,168.61822873869966,170.54893557134125,168.31441450843965,169.0592498779297,270100
2024-11-26,169.41208015284485,169.41208015284485,167.7459918835038,168.60842895507812,140300
2024-11-27,169.22586404114253,170.41173555223975,168.0988083114946,168.3046112060547,167200
2024-11-29,169.1474408135347,170.02949799270758,168.65741403213775,169.51007080078125,117300
2024-12-02,169.52966938718723,169.65708114199288,167.43235525852162,169.31405639648438,170900
2024-12-03,169.99030199549844,169.99030199549844,167.6773747915681,168.96124267578125,160100
2024-12-04,168.46141115590896,169.44146474689205,167.61856446948624,169.14744567871094,173400
2024-12-05,168.57901699001582,169.0004478209138,167.1285418265622,167.6871795654297,245000
2024-12-06,168.17721164137058,169.2062560061618,167.44217140684438,167.73617553710938,209200
2024-12-09,168.13797668383563,170.00988246476282,166.83450372952439,167.38333129882812,301700
2024-12-10,167.31474873040528,167.9517775769901,164.8352143640773,167.50096130371094,287000
2024-12-11,168.4516157508474,170.6273359159199,168.32420399879283,168.87303161621094,418600
2024-12-12,168.2458005582768,169.15725818713602,167.37355344809498,168.21640014648438,178300
2024-12-13,167.5009593612563,167.58916059355795,166.43270455823205,166.80511474609375,153200
2024-12-16,166.74633688839629,167.52057273594318,164.24719694799307,164.28640747070312,236100
2024-12-17,163.57093094101776,163.5807410473189,159.59191593464618,159.83692932128906,511900
2024-12-18,160.42498045548814,161.14041541532916,154.7602716927562,155.05429077148438,468600
2024-12-19,155.34830616944112,158.34728304478696,155.0738923305623,155.7011260986328,404700
2024-12-20,155.55409383567164,156.59294816043814,154.32902695185643,155.0248565673828,730200
2024-12-23,154.0350301134896,155.7305187378595,153.82922722182215,155.3581085205078,194900
2024-12-24,155.61290160454055,156.24013527889497,154.77005495264896,156.17153930664062,100500
2024-12-26,155.26010295270436,156.44597449127195,155.26010295270436,155.68153381347656,164500
2024-12-27,154.6720636172203,156.39695253937097,154.46624578488056,154.99546813964844,145000
2024-12-30,153.86840893166374,154.34864055969513,151.90830181151514,153.60379028320312,221700
2024-12-31,154.14284841492992,155.0935017229513,153.06478333745213,153.96644592285156,317100
2025-01-02,154.50544526899088,154.95627650847348,150.38922310762084,151.08506774902344,239400
2025-01-03,150.967461006653,152.61395895139125,149.82080000531155,152.39834594726562,250700
2025-01-06,150.92825644983694,151.55549016417848,148.41932159247074,149.8697967529297,369000
2025-01-07,152.8099524460056,152.94715934907052,149.55618233571022,150.36961364746094,361200
2025-01-08,149.8403790620888,151.18304757207693,149.056333270966,151.0752410888672,228600
2025-01-10,149.67378625415643,151.22227272909234,149.5365793490067,150.38922119140625,350800
2025-01-13,149.8796069447546,151.61430620161917,149.8796069447546,150.82046508789062,349300
2025-01-14,151.72210026466513,152.3493339905026,150.41862714054025,151.52609252929688,196900
2025-01-15,153.0059656935918,153.7900115770172,151.09486413391397,152.45713806152344,206100
2025-01-16,152.78055957623786,154.03502702458957,152.21212667707357,153.29019165039062,346300
2025-01-17,153.83901445152966,154.79946279018606,152.5747369358163,152.9765625,231900
2025-01-21,153.59400049694958,157.0633836408648,153.59400049694958,156.6419677734375,270900
2025-01-22,156.16174421991363,157.54362344855716,155.18169057482152,155.8971405029297,280000
2025-01-23,155.29930636956567,156.62236981086585,154.58385644519683,156.4361572265625,149800
2025-01-24,156.46554994853224,157.26920107193223,154.08402689859372,155.14248657226562,329600
2025-01-27,155.09349854860477,155.75013273528967,153.52540664153773,155.29931640625,317000
2025-01-28,154.42704949078208,157.15159724174742,154.42704949078208,155.2600860595703,204300
2025-01-29,155.61291457845172,155.65212509823508,153.49599514310032,153.97622680664062,265800
2025-01-30,154.6720768692887,155.5149086664643,153.4568049388864,154.97589111328125,274200
2025-01-31,154.75045154888468,156.21073674071707,153.63319108572594,154.01541137695312,834100
2025-02-03,151.49669007178431,153.62340462840817,151.0654640871359,152.86875915527344,364600
2025-02-04,152.9765565302281,155.299293635513,152.9765565302281,154.554443359375,302400
2025-02-05,155.56678689466608,156.92313594175852,155.07535781931088,155.60610961914062,262600
2025-02-06,157.1000465610709,157.1000465610709,152.70666933390916,153.76815795898438,446600
2025-02-07,154.9181067066418,155.19330580645521,139.60517395113374,140.7256317138672,1221500
2025-02-10,141.78711035544322,142.12129352206097,138.48470639401995,140.82391357421875,621900
2025-02-11,139.83126000330654,140.61754967347167,137.85570514489777,139.8509063720703,377300
2025-02-12,138.5535442077584,141.03035147416054,137.5313631149195,139.27102661132812,423500
2025-02-13,140.30300099128152,141.31534368657196,139.03512057584868,140.32266235351562,665900
2025-02-14,141.22689417596524,142.81911962723777,140.27352054231486,142.3080291748047,512800
2025-02-18,142.3080350119088,144.7651805608191,141.4332917963858,144.38186645507812,489600
2025-02-19,143.63488862497093,144.9617531188217,143.1139750082088,144.5194549560547,331000
2025-02-20,144.45067143286263,144.8929546251905,143.41866731928027,144.16563415527344,283100
2025-02-21,144.50964123842508,144.86347079347803,142.71100891667461,143.8314666748047,451900
2025-02-24,143.67420452994452,144.76517773223307,141.88541040384698,143.11398315429688,353300
2025-02-25,143.3793614383485,145.7873610696006,143.22210052435642,145.17799377441406,336700
2025-02-26,144.13613543793164,146.6227652496447,144.10665089449034,144.12631225585938,735600
2025-02-27,143.7233423633532,144.65705460178307,142.86826057620084,143.13363647460938,262800
2025-02-28,143.6545381184058,144.43098938956481,142.1507664814693,144.2344207763672,348700
2025-03-03,144.4506545692963,146.2885943969859,143.19259741490004,144.07716369628906,394100
2025-03-04,143.04518692456787,145.41387896963047,142.65204961296442,143.43833923339844,490100
2025-03-05,143.54643172433074,146.2984374655058,143.54643172433074,145.8954620361328,445100
2025-03-06,145.0305485219981,148.9030120941682,144.53911943917907,148.5590057373047,471700
2025-03-07,147.9299644739293,150.73111600559318,146.62276142563442,150.1610565185547,480200
2025-03-10,149.46327062147788,151.3601799639148,147.66463811184974,147.98898315429688,391100
2025-03-11,147.7628883461735,147.9791183355485,144.7455216717179,145.35488891601562,304000
2025-03-12,145.69888686695407,145.69888686695407,143.0648194196245,143.52676391601562,299700
2025-03-13,143.900274240468,144.67672562820923,141.29569098355023,142.27854919433594,238400
2025-03-14,142.74048587257624,144.3720340117381,142.0623113450195,144.14598083496094,223600
2025-03-17,143.9985523832392,145.46301652973597,143.3597005392626,145.30575561523438,225200
2025-03-18,144.86347189053822,145.00107144092166,143.28106956251574,143.7921600341797,219900
2025-03-19,143.83148153518056,144.93229304087123,142.9763996043014,144.46051025390625,279600
2025-03-20,143.62506440139353,144.8929447997195,141.266195873561,142.71099853515625,332800
2025-03-21,141.5315735327772,142.96655302987472,139.9196867674318,142.3375244140625,601900
2025-03-24,143.25159336230843,145.63993176823914,142.42599601190474,145.4532012939453,463800
2025-03-25,145.94462657089437,146.67193207582238,143.42849685961332,144.6865692138672,325200
2025-03-26,144.5292868819481,146.1509967511721,143.79214330553276,146.01339721679688,630400
2025-03-27,145.73820579296662,147.32060801990121,144.50963310116106,146.7898712158203,312700
2025-03-28,146.73089236026235,147.42872827286658,143.2614041546856,144.41134643554688,239800
2025-03-31,144.06735434534886,146.5343229870739,143.59558661646503,145.8365020751953,372500
2025-04-01,146.3279289386792,147.45820983366664,144.85364168579534,146.54415893554688,240000
2025-04-02,145.4630159103769,148.53936692435062,145.4630159103769,147.94964599609375,247600
2025-04-03,144.24427337200635,147.4778854578111,143.9494278906975,146.1215362548828,352900
2025-04-04,142.73066750752537,145.42370434629547,137.63945428633932,137.7770538330078,531600
2025-04-07,134.00287530876898,139.6837941624517,128.60699371434606,132.3418426513672,629900
2025-04-08,135.02506928764396,136.92197848483247,129.0296280479611,131.36883544921875,473800
2025-04-09,130.89704037690942,141.94437131089686,129.06893862699687,141.28585815429688,491800
2025-04-10,137.6001553196492,140.91238283073105,135.21181696526983,138.3471221923828,309000
2025-04-11,138.45524319829693,142.22943044846525,137.3446235232159,141.63970947265625,203000
2025-04-14,143.30071647529343,143.8904223472296,141.32516206166184,143.29087829589844,249300
2025-04-15,143.59558776645045,144.02803277300885,141.30552638075724,141.4726104736328,250700
2025-04-16,141.59054573403094,143.32038571345137,140.12609665726538,142.51443481445312,307700
2025-04-17,142.90756616049867,143.26139568732975,138.29797412661645,141.36448669433594,390600
2025-04-21,140.84359973934292,141.58074347664174,138.68131444271188,140.1359405517578,291600
2025-04-22,142.02301901433995,144.3032573833429,141.12861439560723,143.5169677734375,217800
2025-04-23,145.33525421843964,146.760410772761,144.69640231267522,145.51217651367188,537000
2025-04-24,145.39420527769312,149.3944453214828,142.9665593386668,148.86370849609375,424500
2025-04-25,148.2641770082967,150.37731630387205,145.04040306116835,146.50485229492188,220500
2025-04-28,147.23215717254052,148.44106852493894,145.73820855180134,147.1338653564453,235200
2025-04-29,147.1928352219858,149.37478157519996,146.4556915890682,147.7235870361328,359900
2025-04-30,146.51465748746503,147.41888509858302,144.68654090490242,147.3795623779297,556200
2025-05-01,146.3444821710105,148.39498265695244,144.87562495462743,146.17689514160156,445300
2025-05-02,150.8200800146687,150.82993276495682,145.69382189987473,149.8441162109375,431600
2025-05-05,149.28220335297306,151.04682352421423,148.74001624656938,149.3314971923828,267600
2025-05-06,148.11893891054953,149.88354394348798,147.30070935640887,148.77943420410156,312000
2025-05-07,149.72583816830937,150.97781448792617,148.48369955760796,149.24278259277344,318400
2025-05-08,149.6370904773431,152.3776743797429,149.0949033979698,151.18482971191406,302500
2025-05-09,151.72704447410322,152.1115123665735,150.7708011185598,151.14541625976562,231600
2025-05-12,153.58035336298764,154.36900960970033,151.52000038825545,153.31419372558594,352500
2025-05-13,154.09298971226121,154.09298971226121,151.02709949704072,151.4608612060547,339400
2025-05-14,151.4411368076829,151.4411368076829,148.82872891175197,150.3173065185547,350100
2025-05-15,150.18917452174261,153.2747704460007,150.18917452174261,152.75228881835938,278100
2025-05-16,152.97900445208893,154.92106425191258,152.39737629987306,154.78305053710938,278600
2025-05-19,154.14228486208216,156.09419752688567,154.09299102338977,155.837890625,185400
2025-05-20,157.98695253486306,157.98695253486306,155.67029270228494,156.281494140625,388100
2025-05-21,154.6351912204993,155.413979709526,153.61980133414392,154.2310028076172,319800
2025-05-22,154.14228143082994,155.0295103380722,153.35362515641054,154.42816162109375,278900
2025-05-23,152.9198641452087,153.964827320536,152.07206127878644,153.72824096679688,260500
2025-05-27,154.80280083929685,156.19280604712324,154.4676267592502,155.91677856445312,352800
2025-05-28,155.91675648544185,156.58710455060864,155.02951252332593,155.1675262451172,364400
2025-05-29,155.59144226540175,156.41952463373346,154.59577287317205,156.0843505859375,232100
2025-05-30,155.99563159879617,156.52796596940533,154.31973126540694,156.15335083007812,335100
2025-06-02,155.30554827866962,156.813861590753,153.05788752213863,154.6844940185547,349600
2025-06-03,153.9648340363994,155.20697261718047,153.78739426335522,154.043701171875,397800
2025-06-04,154.2704388516904,154.30001214509375,148.15836414730086,148.27667236328125,831900
2025-06-05,149.43008223768163,151.1651140408049,146.9359674396561,150.32717895507812,482400
2025-06-06,152.1804916708798,152.28893208998258,150.05113941579197,151.13552856445312,264700
2025-06-09,150.54407095295542,151.00739095090327,149.21321242568564,149.44981384277344,388400
2025-06-10,150.001860330608,150.82994268025288,148.7202957176617,150.36660766601562,323500
2025-06-11,150.82994254149838,151.4115707359019,149.4498052933599,149.7652587890625,380800
2025-06-12,149.26250889760814,152.42697205417795,149.26250889760814,152.1608123779297,337200
2025-06-13,150.82995131844777,151.53974052804173,148.5921432536899,149.01605224609375,361200
2025-06-16,149.09491396311157,150.7313581523707,148.97660573756926,149.5385284423828,346200
2025-06-17,148.5231211018251,149.11460199074878,147.01482302363846,147.3302764892578,379700
2025-06-18,147.0049610386582,148.59212630654162,147.0049610386582,147.5767364501953,383200
2025-06-20,148.1583603569541,148.63156312403586,146.87681089594898,148.16822814941406,570500
2025-06-23,147.36973462159207,151.75661565197194,147.36973462159207,151.60873413085938,356500
2025-06-24,152.37765986078938,152.37765986078938,151.00736051897172,151.6875762939453,246600
2025-06-25,151.67773528253588,152.33823056724884,150.60319885109388,151.74673461914062,264700
2025-06-26,152.33824953068293,153.37336004754195,150.94824440925422,152.28895568847656,658200
2025-06-27,152.46640393058135,153.89583503865111,152.04249495674745,153.60995483398438,643100
2025-06-30,153.81695259670582,154.28028757107535,152.4170949235091,154.21127319335938,315500
2025-07-01,154.21127594013436,157.5334879476997,153.74795599987883,156.7546844482422,338300
2025-07-02,156.7645627082632,158.2531403852606,156.399800331021,158.04612731933594,293500
2025-07-03,158.32215846518048,159.0713736966319,157.55322268905795,158.7559051513672,235100
2025-07-07,158.66719519414403,160.06705310603843,158.27287453025264,158.67706298828125,313900
2025-07-08,158.61790344414007,160.27408334755575,157.58280792717076,157.77996826171875,342700
2025-07-09,157.66162256797776,157.74048969153264,155.85759164523577,157.46446228027344,252800
2025-07-10,156.93215349895374,158.08555716392323,156.0843505859375,156.0843505859375,361600
2025-07-11,156.31107345675375,156.31107345675375,154.40845469060778,155.66043090820312,292000
2025-07-14,154.9112304114943,156.6857034201191,154.46761591993024,155.3252716064453,276600
2025-07-15,155.50270521521296,155.7590120983507,151.8847603468732,151.97348022460938,254200
2025-07-16,151.73689710833995,153.4029296552156,151.37214976104823,152.7818603515625,261900
2025-07-17,152.5452588316346,154.1915706701163,152.31851019393284,153.81695556640625,397700
2025-07-18,154.62533756237983,154.98023213510643,152.72270372898328,154.16200256347656,243100
2025-07-21,154.20143682439874,154.44789098408017,153.03818041103906,153.2451934814453,205900
2025-07-22,153.8958183896831,157.09972209739536,153.0282950337299,156.91241455078125,449900
2025-07-23,157.7996815698846,159.55443403890214,156.88286424485372,159.36712646484375,450500
2025-07-24,159.1199843382774,162.40202374818793,157.96334597762163,159.97015380859375,431900
2025-07-25,160.19750774667867,161.22561221674488,158.94202169024894,159.14962768554688,296300
2025-07-28,159.35722424092228,160.12830639187274,156.35198291982778,156.88580322265625,308500
2025-07-29,157.23180681567746,157.7755224517839,155.4227248360997,157.0044403076172,388200
2025-07-30,156.98466705246165,157.11317068883088,153.1490167817767,154.9976348876953,580700
2025-07-31,153.99917438750097,155.55123391765005,153.4060273513415,155.3436279296875,679700
2025-08-01,155.1755793394096,156.31242693918023,139.47710868616434,139.73414611816406,1012300
2025-08-04,141.48391404841098,141.48391404841098,135.51296714998165,137.53953552246094,839000
2025-08-05,137.7471203907678,139.4573546226765,136.1159885271504,138.6170654296875,540800
2025-08-06,138.70603871474566,139.1508915064958,135.97759518556805,136.95626831054688,515300
2025-08-07,138.2018575966745,139.87254051260254,137.32203237332467,138.88397216796875,564000
2025-08-08,139.08167952516152,140.42613304538742,138.9729364064537,139.1409912109375,428700
2025-08-11,139.71437362843554,140.00105182700324,137.60871811175764,138.27105712890625,349500
2025-08-12,138.61704399688827,139.47709356461323,137.63835597942716,137.885498046875,286100
2025-08-13,138.0931027842477,139.82309724089322,137.65813033593722,139.81320190429688,729900
2025-08-14,138.58740244327777,138.58740244327777,134.8802710493718,136.758544921875,875800
2025-08-15,136.77831584476164,137.36156754391794,136.29391192878876,137.1342010498047,770500
2025-08-18,137.30225854285285,137.97449286968606,135.7798699097183,136.31369018554688,529500
2025-08-19,136.6893602194093,138.9136391735608,136.6893602194093,137.9942626953125,333100
2025-08-20,138.3105996295714,139.6352775807112,137.6680211600025,139.56607055664062,519200
2025-08-21,139.02239208429995,140.27786321045522,138.63685097516378,139.0322723388672,270400
2025-08-22,139.64514711005958,141.6914906506962,139.57595517565812,139.81320190429688,356500
2025-08-25,139.35848463440877,139.99116778923627,137.3714676366746,137.964599609375,245800
2025-08-26,137.4802014096915,138.5577372418402,136.43230633558758,138.11288452148438,442900
2025-08-27,137.49997281529963,138.96306488334525,137.44066112579765,137.84597778320312,729100
2025-08-28,138.56761226962325,138.56761226962325,135.82927394454933,137.30224609375,320800
2025-08-29,137.57905461233506,138.2710494362034,136.76843641419092,137.67791748046875,370700
2025-09-02,135.84906508939116,136.94637659553402,134.6133546133004,134.85061645507812,310600
2025-09-03,134.5243943101381,134.62324210292473,132.9031426817368,133.67422485351562,382300
2025-09-04,134.79130216014153,136.8969425133348,133.49626493537275,136.87718200683594,401800
2025-09-05,137.43077574465525,139.21020178510477,136.0566663464884,137.03533935546875,440800
2025-09-08,137.005687591299,138.3995726215184,136.1060867490136,136.71900939941406,616100
2025-09-09,136.67946624256135,137.88552093868483,133.55560145550504,135.48330688476562,637100
2025-09-10,134.5738357125756,135.88863363727893,133.30846923010407,134.6924591064453,685100
2025-09-11,135.18672513791338,136.6992335433112,134.31678014184178,135.53273010253906,477500
2025-09-12,135.05820672958419,135.4832989752159,133.67421703664533,133.68409729003906,261300
2025-09-15,134.41564821558472,134.6133588811563,133.09097016346266,133.30845642089844,298000
2025-09-16,133.2491251648004,133.8719280705481,132.56702565416762,133.66433715820312,474800
2025-09-17,133.87191960070743,135.5030663734287,132.65598479511914,133.1107177734375,377400
2025-09-18,133.35785413721098,133.96088138776295,132.5373557439718,132.96243286132812,254800
2025-09-19,133.12063874406192,133.55561130054514,131.81572107461227,132.9031524658203,877200
2025-09-22,132.58679434770661,133.39742770900972,131.1533731265575,131.2028045654297,402100
2025-09-23,131.48947627590215,132.41873297707602,130.46137178622766,130.51080322265625,319700
2025-09-24,130.49103409799787,131.7860563410793,129.83857530726212,129.9967498779297,353300
2025-09-25,129.99674318999885,131.0050871706818,128.7808082948073,129.32452392578125,388700
2025-09-26,129.82869272268246,130.9161089366979,129.46292723339218,130.7777099609375,274400
2025-09-29,130.88643819323417,131.16323611324975,129.85833378808422,130.7579345703125,540600
2025-09-30,130.20434429084327,132.23089734514227,130.20434429084327,132.13204956054688,310400
2025-10-01,131.8058293753404,132.82405364216999,130.7974853623518,132.6065673828125,310100
2025-10-02,132.1320554290962,132.85370613455356,131.44006056877018,131.65753173828125,398500
2025-10-03,130.95565622479634,132.0529677443783,130.91610504183745,131.69708251953125,402000
2025-10-06,131.37085466398543,131.67730845586786,129.90777764901935,130.37240600585938,447100
2025-10-07,130.59976556964224,130.99518687665005,128.32605534345748,129.09713745117188,438800
2025-10-08,129.68039176507327,130.50090532374472,128.77091067319023,130.10548400878906,361300
2025-10-09,130.19444872342635,131.32141603944422,128.71159619791044,129.11691284179688,554200
2025-10-10,129.4431381350315,130.5008983927555,128.40513838295638,129.43324279785156,426000
2025-10-13,129.49257085556,130.83702438647268,128.67205733230725,128.7313690185547,311400
2025-10-14,128.55343940983934,129.5617834901798,127.56487092285874,128.31619262695312,337400
2025-10-15,128.31618340743444,128.8994351526004,126.39835826699053,126.6356201171875,438300
2025-10-16,126.97172413317051,128.01960419415852,126.38846487166605,127.6834945678711,352700
2025-10-17,127.68349224387053,128.61274891028023,127.37703846757714,127.8614273071289,339700
2025-10-20,128.12834444492697,128.6028530293001,126.55652438869629,128.51388549804688,240500
2025-10-21,129.11691341640903,130.2636563281568,127.64394113747322,129.07737731933594,311600
2025-10-22,129.1564481138655,130.59976453326686,128.49410913348765,128.5731964111328,357500
2025-10-23,128.73197123448563,130.50805690169727,128.65259098954968,129.75396728515625,378600
2025-10-24,129.73411268037526,129.87302431778892,127.54127703952456,127.87864685058594,489300
2025-10-27,128.1366224648553,128.89071205489756,127.45198112404552,127.7794189453125,521700
2025-10-28,127.74965710905877,128.10686063940022,126.47960347678546,127.1047134399414,413500
2025-10-29,126.29107194406481,126.50936382227088,122.46106236313027,123.34414672851562,651100
2025-10-30,123.0762548978033,124.54475159294849,122.08402453671503,123.39376831054688,702600
2025-10-31,114.39423553008093,117.18240033192052,102.42794018569283,115.108642578125,2758200
2025-11-03,115.18801418737364,115.18801418737364,107.44862223530946,112.24109649658203,1661000
2025-11-04,113.47146370471108,115.09872087701821,111.65568034301285,113.29286193847656,1029100
2025-11-05,113.44169462480497,115.13840756841266,111.89381017352693,114.67205810546875,896900
2025-11-06,114.12632587945619,116.05125508565277,112.91581127124762,115.24755096435547,880300
2025-11-07,115.32693339499808,116.01156716794395,113.79889779417432,115.31700897216797,697200
2025-11-10,115.08879219606841,115.86273063108003,113.11425598749823,115.47576141357422,514000
2025-11-11,116.05125494853503,118.58144524090463,116.05125494853503,117.35107421875,484800
2025-11-12,117.42052991643766,118.74019803055835,116.99387815530137,117.24193572998047,547500
2025-11-13,117.38085119077797,120.93303002263367,117.38085119077797,119.26608276367188,679400
2025-11-14,118.8394216459119,119.75227929014665,117.47014653473461,117.68843841552734,521200
2025-11-17,117.56937122538191,118.56160156840677,116.65652112662708,118.41276550292969,820200
2025-11-18,118.73028226930452,119.1767828797841,117.14270772067383,118.38299560546875,817400
2025-11-19,118.5814455351289,118.5814455351289,116.79542796312874,117.08317565917969,598900
2025-11-20,117.08317313835506,118.68066449610633,116.45807078667181,117.6586685180664,507400
2025-11-21,117.21216086173891,121.29022793939164,117.21216086173891,120.57582092285156,509100
2025-11-24,119.91102909425057,121.44898907258941,119.5042186116015,120.52621459960938,740000
2025-11-25,121.45891525209124,123.11593804438662,121.45891525209124,122.48091125488281,543600
2025-11-26,122.06416725085363,123.55251268958358,122.06416725085363,122.84803009033203,538000
2025-11-28,122.66943052847252,125.10039933060551,122.66943052847252,123.78073120117188,315700
2025-12-01,123.90971816318398,123.9890984046682,122.07409360703122,122.32215118408203,536800
2025-12-02,122.80834273936739,122.8976474041654,119.86142506313116,120.65520477294922,325400
2025-12-03,120.50637218565886,123.29454459847216,120.46668963362305,121.11163330078125,543100
2025-12-04,121.25053931737644,123.11593712141129,120.9826404679227,121.07193756103516,708000
2025-12-05,121.0421717426921,122.55036603254122,119.6828210814482,120.96279907226562,537000
2025-12-08,119.98048683677486,121.15131890116776,118.37307858523162,119.13709259033203,496600
2025-12-09,118.67074319979267,118.91880077653559,114.46368881786525,114.82089233398438,640300
2025-12-10,115.26739038159026,116.88473059087394,114.23546997686611,116.2596206665039,734700
2025-12-11,117.04348695770692,117.74796957239353,116.2497072483959,117.09310150146484,389700
2025-12-12,117.59913070053165,120.69489193216835,116.7358951926614,120.52621459960938,656400
2025-12-15,120.53613763713133,121.508519071394,119.54390735802136,121.37953186035156,588600
2025-12-16,121.71688801826957,122.88772006482098,118.59136108661724,121.87564849853516,644800
2025-12-17,121.16123927977195,123.63189054068698,119.14701303616661,122.66942596435547,567300
2025-12-18,122.70911937736454,123.15562755440962,121.08186229106413,121.66728210449219,457100
2025-12-19,122.38168448192317,123.36399795279324,120.31785116207733,120.44683837890625,1300400
2025-12-22,120.44683702770696,122.73888662712453,120.1293236305144,121.78634643554688,527800
2025-12-23,121.91534038479175,122.07409329724082,120.37738038293297,121.2406234741211,311700
2025-12-24,121.57797277960053,122.21299954160835,120.8139588087873,121.7962646484375,198000
2025-12-26,121.41922894554897,122.52060522415447,120.77427771310445,122.29238891601562,306000
2025-12-29,122.33207341633238,123.34414498172643,121.36960882339034,122.25269317626953,400200
2025-12-30,121.8458854019756,123.3342308707125,121.46883303835433,121.78634643554688,289800
2025-12-31,120.57582164498164,122.37176361957204,120.40714431232067,121.01240539550781,314300
2026-01-02,120.79411100995517,122.04432327040651,119.84157085869765,121.58789825439453,295100
2026-01-05,120.81396333104647,123.61205247154165,120.81396333104647,122.04432678222656,435700
2026-01-06,121.2703893294616,121.89549169761267,119.17678277613919,119.62328338623047,777200
2026-01-07,119.73242778357526,121.0024813489251,116.69620550577852,119.50421905517578,478500
2026-01-08,118.98826090452039,122.41146012961788,118.59136725333443,121.48868560791016,330000
2026-01-09,121.13148146291526,123.9990265337246,120.51629592819934,122.88772583007812,429100
2026-01-12,123.0365583546262,124.32646078477775,122.02448676997972,124.15777587890625,477300
2026-01-13,124.07840343065625,124.46537264637453,121.58790323017156,122.54044342041016,351900
2026-01-14,123.1457089980577,126.1720145851002,123.1457089980577,125.86441802978516,611700
2026-01-15,126.15215809530929,126.23153833510459,123.5525120178855,124.13793182373047,381000
2026-01-16,123.03656046752509,124.22723383109965,122.28246329986567,123.74104309082031,363400
2026-01-20,123.92956647771405,124.55466884396232,122.4809111423571,122.85795593261719,275100
2026-01-21,123.34414579788033,124.64397263463209,122.93733531257004,124.03871154785156,421000
2026-01-22,124.07840219082979,125.42783600604635,123.09608874217598,123.5029067993164,369700
2026-01-23,123.37391303470616,125.29884225734148,122.90757114819523,125.0210189819336,429500
2026-01-26,125.43775721229031,126.00332820078921,124.12801347207618,125.36830139160156,315400
2026-01-27,123.9791728132312,125.3186897727715,123.205234391347,123.77080535888672,303100
2026-01-28,123.235006777915,124.09824991001042,122.29239097089199,122.7388916015625,347800
2026-01-29,123.32430960117436,124.30661551602421,121.63751348474041,122.88772583007812,386000
2026-01-30,121.95503612712301,124.03871835108907,121.70697853926713,123.97917938232422,512700
2026-02-02,123.23499750184895,124.93171793896286,123.23499750184895,123.860107421875,489100
2026-02-03,122.94725978548665,126.93602225021577,122.72896790883826,123.66165924072266,658700
2026-02-04,125.21552867481128,129.90700134775133,124.20949930267037,128.7216796875,589400
2026-02-05,127.16782066467043,128.5722782146923,121.48028130551128,123.49234008789062,2144200
2026-02-06,127.02836268310486,135.45509216979158,127.02836268310486,133.7816925048828,1045700
2026-02-09,133.05457384055362,139.02101804829903,132.72587004959905,137.9253387451172,1043400
2026-02-10,137.26793457923543,140.37565748193367,137.26793457923543,139.61865234375,622100
2026-02-11,138.48313331396238,139.99715874839507,138.05483198642824,139.4592742919922,584300
2026-02-12,139.60869173387061,141.44145054391814,138.84171623230802,139.95730590820312,572700
2026-02-13,139.9573151020267,142.3677944950846,139.85771755943315,142.01918029785156,471900
2026-02-17,138.71222079286514,143.055071512211,138.71222079286514,141.0928192138672,614700
2026-02-18,140.9135352437976,142.54708376856578,140.2860084572567,141.1625518798828,582000
2026-02-19,141.0928230678908,142.7562676088946,140.4752666602554,142.59689331054688,525500
2026-02-20,142.55704525117903,144.56910401516237,141.44145553591065,144.47946166992188,664500
2026-02-23,142.9255958993581,145.6647789342487,142.5670113304762,145.14682006835938,513500
2026-02-24,145.49544486452967,146.33213709933392,143.28417595914058,143.57302856445312,429800
2026-02-25,141.8498473766502,143.0949306198296,139.87762457633954,142.1187744140625,348900
2026-02-26,142.95547535989397,143.35389589996325,140.44538340090327,141.23226928710938,331300
2026-02-27,140.97329664666827,143.44353741820976,140.44538259466083,143.1447296142578,344600
2026-03-02,142.43751420451355,142.78614357053576,141.06293752550724,142.1088104248047,335000
2026-03-03,140.08679425249235,140.76412738697488,136.38142559574294,139.2102508544922,347300
2026-03-04,138.79191754238275,138.9612470419286,135.47501391314069,136.50096130371094,389000
2026-03-05,135.46505150535157,135.80371048641027,133.88130933030985,134.20004272460938,452300
2026-03-06,133.47291651624107,133.47291651624107,130.48471689274314,131.5604705810547,398500
2026-03-09,130.45484354440993,133.45299853256722,127.02837201579013,133.22390747070312,545700
2026-03-10,132.82547764917305,133.60240832546756,130.88313575966777,131.6102752685547,503100
2026-03-11,131.2815812945587,132.75575561111177,129.5284943463408,131.50071716308594,563800
2026-03-12,130.7536581494707,132.26766833775483,128.13399830193273,128.35313415527344,620600
2026-03-13,129.6380511924889,129.6380511924889,126.55025410703881,128.14395141601562,660600
2026-03-16,128.97069022910543,130.8931065380538,125.50438295551326,128.54238891601562,370700
2026-03-17,129.45876833048925,130.50464122844355,127.73557748644285,128.99061584472656,276700
2026-03-18,123.89075860801685,126.08210964583039,120.94240244020646,123.73139190673828,910500
2026-03-19,122.52615308632394,124.32903117833895,120.97228404186016,123.48237609863281,518500
2026-03-20,123.77123411184346,123.77123411184346,119.83676660084556,120.58381652832031,1481500
2026-03-23,123.02418368013113,125.84304628604973,122.50622481021608,123.65170288085938,455200
2026-03-24,122.67556308818467,124.72745780194329,122.38670286935901,123.66166687011719,405000
2026-03-25,124.94659356774676,126.07214606142944,123.22339504970952,125.3250961303711,337200
2026-03-26,124.72746089618293,126.83911722505529,123.6317891558115,124.19954681396484,442100
2026-03-27,123.45249678230496,123.72143142045898,121.28107129127055,121.51016235351562,381400
2026-03-30,122.07791483255923,123.45249154525831,120.62365857080745,122.87477111816406,562000
2026-03-31,123.90072145898677,126.46061226934556,123.1038651540704,125.52430725097656,557800
2026-04-01,126.83910993884153,128.13399948450484,125.83308820196113,126.25143432617188,380200
2026-04-02,124.64777023751822,126.5900970135599,123.76127159620845,125.51435089111328,297500
2026-04-06,124.0999305830527,125.6936431780852,124.0999305830527,125.51435089111328,461100
2026-04-07,124.82706080661809,126.6697824199569,124.30910953992999,125.11592102050781,376900
2026-04-08,130.86323514521675,132.1481543754263,127.64592907491694,131.50071716308594,645200
2026-04-09,130.70386349661462,131.91906599267529,126.83912013545304,130.88314819335938,424100
2026-04-10,131.7298075164679,132.178034445579,130.3353203595067,130.98275756835938,407400
2026-04-13,130.28551770076956,131.89914077103793,127.07818194963497,131.59036254882812,396300
2026-04-14,130.71381054193466,132.197955189354,130.45483870763653,130.4946746826172,315500
2026-04-15,130.29547082253353,130.51460669263554,128.0941721257409,129.14002990722656,407100
2026-04-16,126.40084558822308,129.81735412824597,126.40084558822308,127.78536987304688,393800
2026-04-17,129.14002424182965,131.7796097617975,129.14002424182965,130.11618041992188,401100
2026-04-20,130.05641512792803,131.47082778766443,129.1499909308814,130.405029296875,403600
2026-04-21,130.18589466096142,131.72980084865796,126.1916732788086,126.1916732788086,310200
2026-04-22,126.77935427393615,126.77935427393615,122.47634691200882,124.06009674072266,458900
2026-04-23,124.88682675562279,126.93872910578784,123.95052932532681,124.44856262207031,440800
2026-04-24,123.9206456254592,123.9206456254592,122.08787918491913,123.5919418334961,440900
2026-04-27,123.55209914216728,125.73348737793874,123.05406585359005,124.23938751220703,359700
2026-04-28,125.62392082821759,126.15183490401432,123.23335949687649,125.2752914428711,354300
2026-04-29,124.64776713863216,125.4047798425139,122.30701227202618,122.41658020019531,448400
2026-04-30,122.94449532386469,125.58407321741664,121.40058912214994,123.19351196289062,764800
2026-05-01,126.70962950793603,127.97463072857443,117.4362520229959,118.55184173583984,989400
2026-05-04,118.21317963909578,121.27110367417347,116.9979772200526,120.12562561035156,739600
2026-05-05,120.42445055667139,123.22339520339091,120.34476340674007,121.55000305175781,628600
2026-05-06,123.18000030517578,126.38999938964844,121.66999816894531,122.62999725341797,917000
2026-05-07,122.94000244140625,126.47000122070312,122.56999969482422,125.11000061035156,749700
2026-05-08,125.2300033569336,125.86000061035156,120.38999938964844,120.98999786376953,794900
2026-05-11,121.22000122070312,121.22000122070312,119.44000244140625,119.95999908447266,706100
2026-05-12,120.44999694824219,120.86000061035156,117.13999938964844,118.05000305175781,696600
2026-05-13,118.0,118.75,116.43000030517578,117.87999725341797,679500
2026-05-14,118.7300033569336,120.16000366210938,117.04000091552734,117.98999786376953,531000
2026-05-15,117.91000366210938,117.91999816894531,114.47000122070312,114.66999816894531,447000
2026-05-18,115.5999984741211,117.31999969482422,115.16999816894531,115.80999755859375,433100
2026-05-19,115.88999938964844,116.04000091552734,112.44999694824219,113.61000061035156,575800
2026-05-20,114.06999969482422,115.44999694824219,111.55000305175781,115.26000213623047,562600
2026-05-21,116.5,116.5,112.7699966430664,115.51000213623047,345600
2026-05-22,115.80000305175781,116.80000305175781,114.70999908447266,116.2300033569336,405800
2026-05-26,116.19999694824219,116.97000122070312,115.37000274658203,116.37999725341797,344500
2026-05-27,116.94000244140625,118.11000061035156,114.7300033569336,115.30000305175781,464000
2026-05-28,114.80999755859375,116.33999633789062,113.3499984741211,115.98999786376953,510100
2026-05-29,115.05999755859375,117.26000213623047,113.75,115.8499984741211,559600
2026-06-01,114.69000244140625,115.12999725341797,112.02999877929688,112.37999725341797,706800
2026-06-02,111.94999694824219,113.05000305175781,111.23999786376953,112.18000030517578,452400
2026-06-03,111.69000244140625,114.0199966430664,111.69000244140625,112.52999877929688,372600
2026-06-04,114.94999694824219,115.76000213623047,111.54000091552734,112.55000305175781,337600
2026-06-05,113.08999633789062,114.58999633789062,111.9800033569336,113.36000061035156,466300
2026-06-08,112.26000213623047,112.63999938964844,110.94999694824219,111.94000244140625,422200
2026-06-09,113.27999877929688,116.1500015258789,112.66999816894531,115.9000015258789,444400
2026-06-10,116.1500015258789,116.55000305175781,113.37000274658203,114.66999816894531,496800
2026-06-11,115.11000061035156,117.01000213623047,114.26000213623047,116.58000183105469,395200
2026-06-12,117.9000015258789,118.47000122070312,116.37999725341797,117.72000122070312,342600
2026-06-15,118.69999694824219,120.73600006103516,117.55999755859375,118.08000183105469,387097
