Date,Open,High,Low,Close,Volume
2023-06-12,110.32294222621215,111.19836461438904,109.95738227745571,111.00596618652344,353000
2023-06-13,111.31381287819178,111.96797783650442,110.3999092970995,110.83280944824219,340600
2023-06-14,111.21761389718266,111.55431483095913,110.0054831960575,110.78471374511719,225200
2023-06-15,110.63078951378702,111.97760059316519,110.58268623470819,111.64089965820312,362600
2023-06-16,111.25608649771847,112.75681473831688,110.97710364846094,112.6990966796875,975300
2023-06-20,112.43935080762263,112.50669098924244,111.31380462646484,111.31380462646484,297000
2023-06-21,110.76546986182699,110.8809133278712,109.11081687950966,109.30322265625,317800
2023-06-22,109.62068186738438,109.7265032121453,108.08147231567553,109.71688842773438,266200
2023-06-23,108.61056833130178,109.40903573049138,107.81210093211217,108.54322814941406,366000
2023-06-26,108.76448767860848,110.02472159161579,108.76448767860848,109.29359436035156,142300
2023-06-27,109.50524936566322,110.45763416053002,108.92804668209335,110.36143493652344,218300
2023-06-28,110.44798257845734,110.44798257845734,108.20651263276265,109.20699310302734,204800
2023-06-29,109.12043591353498,110.97710940421138,108.27387253843727,110.41914367675781,225900
2023-06-30,110.84243082499913,111.8621557409713,110.47686352340168,111.45811462402344,279800
2023-07-03,111.02520156481067,112.57402566633326,111.02520156481067,112.11226654052734,85700
2023-07-05,111.22723412051471,111.22723412051471,108.4758939551834,108.64905548095703,384200
2023-07-06,107.98526437103318,108.68753257139146,107.38881750688684,108.19690704345703,277700
2023-07-07,108.3700790753215,110.94825786857312,108.31235367026923,109.46676635742188,333400
2023-07-10,109.00500198025017,110.91940103944074,108.71640430737611,110.12093353271484,248000
2023-07-11,109.96699400151331,111.1695024910392,109.06271260826982,111.12140655517578,226700
2023-07-12,112.15075804421535,113.08390584398397,111.37152752074805,112.42974090576172,199400
2023-07-13,112.41049798976871,112.91074565761176,112.13151512491966,112.56442260742188,190200
2023-07-14,113.21859488489058,114.3248969529102,112.26620276543113,113.853515625,271600
2023-07-17,113.90161636491591,114.99830362389025,112.70872988558996,114.72894287109375,234200
2023-07-18,114.48843831688549,115.7967682319705,114.19021119978753,114.55577850341797,189100
2023-07-19,114.23832504397583,114.87325315245806,113.81503963832101,114.58464813232422,247200
2023-07-20,115.22916474035685,115.65245004945407,114.34412031181617,114.7962646484375,175800
2023-07-21,115.10412706121498,115.4889312891488,114.35376285348565,115.28690338134766,184300
2023-07-24,115.46005920763793,115.91220360263762,114.19983257951267,115.18108367919922,163400
2023-07-25,115.13296704470949,116.51825910025737,114.76740712539723,115.97953033447266,250700
2023-07-26,115.98920106005731,116.22086850035656,114.69570917552166,115.78648376464844,306900
2023-07-27,115.89266517527358,116.58767485454675,114.61848321813113,115.00460052490234,407800
2023-07-28,118.23831895027517,122.58212207343301,117.64949171552556,119.4835433959961,513000
2023-07-31,119.23257390513415,119.62834619522816,116.63594976374563,117.24407958984375,746500
2023-08-01,117.03171151335569,118.24797849712147,116.5587216614483,118.1900634765625,365300
2023-08-02,117.22476678755726,118.08387390872966,115.8154449105264,117.99699401855469,329200
2023-08-03,117.30199293914264,118.46999987567395,116.52976565163671,116.61663818359375,195900
2023-08-04,116.43324261303452,117.8908247118192,116.29810264843958,116.45254516601562,116500
2023-08-07,116.53941911210748,117.43713875366868,116.32705421728596,117.0799789428711,140300
2023-08-08,115.91197623422308,117.18615820393119,115.55481643313685,116.91587829589844,270100
2023-08-09,116.91587211476954,119.10707613725458,116.33669249723364,117.60122680664062,287500
2023-08-10,117.57226804078596,119.28082727342787,117.57226804078596,117.98734283447266,216000
2023-08-11,117.29234698550657,118.94299139695178,117.29234698550657,118.35416412353516,226500
2023-08-14,117.79427784821463,118.72095489501953,117.35990051409733,118.72095489501953,145700
2023-08-15,118.37346063529799,118.6630504602438,117.74602828887402,117.85220336914062,249000
2023-08-16,117.5047040691571,118.88506846613971,117.27302926695963,117.32129669189453,291100
2023-08-17,117.72671616217751,118.40242328617137,117.39852124033838,117.4178237915039,186600
2023-08-18,117.16685235814124,119.1360440823842,117.16685235814124,119.01055908203125,443100
2023-08-21,118.87541361000102,120.13994060696739,118.78853371795883,119.4835433959961,358800
2023-08-22,119.57042216370789,121.34655144459086,118.49895014757142,118.6823501586914,429600
2023-08-23,118.78855405602752,119.27119893012427,118.06458674488239,119.10710144042969,305000
2023-08-24,119.20362305346342,121.10524494179332,118.3348608500924,120.76739501953125,278400
2023-08-25,121.21140038603271,123.2481617893748,120.64188312464738,123.11302185058594,493000
2023-08-28,123.19991484093003,125.08223406896586,123.19991484093003,124.91813659667969,331900
2023-08-29,125.2946173413664,127.37964681699768,124.90849258894215,127.2445068359375,472400
2023-08-30,127.77535859891267,128.6344656122843,127.12861644090465,128.27731323242188,298900
2023-08-31,128.65379569559605,129.0881730663421,127.64990100033508,127.95878601074219,305800
2023-09-01,128.48005469445837,129.14609216174586,127.92018494570092,127.94914245605469,252000
2023-09-05,127.10933191058002,127.39892174655428,122.93928835166383,123.14199829101562,325300
2023-09-06,123.35435957766143,123.56671710464039,121.81954527524937,122.02226257324219,291100
2023-09-07,121.90643244991844,122.75588470229167,120.79634786431747,121.00871276855469,328600
2023-09-08,121.15348865161297,122.27322065538502,120.77702633129032,120.9604263305664,238800
2023-09-11,122.58212288434471,123.48949745495977,122.02226051962224,122.60143280029297,333500
2023-09-12,121.73267217607768,122.87171419988563,121.06661999469735,122.13809204101562,258000
2023-09-13,121.41413652697216,122.19601882240913,120.76739419952243,121.01837158203125,279300
2023-09-14,121.63615541603849,122.88137999494357,121.63615541603849,122.36012268066406,217900
2023-09-15,122.09948930636727,122.78484409398824,120.8253072260088,121.55892944335938,589200
2023-09-18,121.97398608311462,121.97398608311462,120.58396679774475,121.27897644042969,175100
2023-09-19,121.32724105826763,121.32724105826763,119.75381444117978,120.9604263305664,218600
2023-09-20,121.47203081864482,121.72300815831589,120.2364613996098,120.30403137207031,206200
2023-09-21,120.0144532189057,120.03375576976619,117.94873414181244,117.97769165039062,335700
2023-09-22,118.08388775742861,118.63410257781541,117.87152285051164,118.42173767089844,341200
2023-09-25,117.7556733807471,119.82139248538923,117.25372604135627,119.7345199584961,258800
2023-09-26,119.24221396331276,119.90826609288796,118.95263152427002,119.30978393554688,547000
2023-09-27,119.73453686713593,120.13030181982974,118.60514967058579,119.23258209228516,362400
2023-09-28,119.56077415880812,121.27898852184504,118.98160185373365,121.1148910522461,219300
2023-09-29,122.09946539715449,122.42766765298138,120.45847621174302,120.69979858398438,330900
2023-10-02,120.2075027230005,121.12453218556013,119.68624549855679,120.70945739746094,244100
2023-10-03,119.71521017927378,120.96043461818644,118.23831830380705,118.60513305664062,236300
2023-10-04,119.26152579086992,120.33299777103545,118.0838713719799,119.91792297363281,208200
2023-10-05,119.65729213678843,120.5936241817703,118.53756008460046,119.45458221435547,466700
2023-10-06,119.31944873185724,122.29254248446563,119.10708384030303,122.02226257324219,491700
2023-10-09,121.45273985524017,122.80414679795139,121.32725485572051,122.53386688232422,275700
2023-10-10,122.82344297911708,124.14589234292649,122.11878571629325,122.14774322509766,322000
2023-10-11,123.10338592529297,123.26748339568097,122.25393369807082,123.10338592529297,212900
2023-10-12,122.80414409899959,122.97789652159486,120.71911502785633,121.06661987304688,189300
2023-10-13,121.62649932106444,122.27324163725763,121.04732698768882,121.59754180908203,324900
2023-10-16,122.9392835826247,123.00685355978747,121.79058660628245,122.31184387207031,275200
2023-10-17,121.6361379330477,123.88525698147005,121.6361379330477,123.05511474609375,314400
2023-10-18,122.4663049500312,123.23853227905134,121.8967802064746,122.37942504882812,287300
2023-10-19,121.70370985945581,123.04546176273765,121.0376577043825,121.36585998535156,443900
2023-10-20,121.55891504786679,122.08982725371666,117.69775679317661,117.97769165039062,446500
2023-10-23,117.49505685595796,118.88507630246588,117.00275707455714,117.2826919555664,379000
2023-10-24,117.89080792277012,119.4738821664985,117.49504304412535,119.05880737304688,312100
2023-10-25,118.57456478321305,119.88205053938309,118.05156900291749,118.5164566040039,431300
2023-10-26,117.44142013499159,121.44136021457453,117.44142013499159,119.54308319091797,576000
2023-10-27,119.58181419956955,119.94015782086082,116.56975044747777,117.35424041748047,364000
2023-10-30,118.08062663343416,118.4680317477671,117.0443222013479,118.32275390625,283100
2023-10-31,118.65204893878834,119.02007972748278,117.99346247171451,118.41960144042969,422900
2023-11-01,118.26464547425135,119.54307717643965,117.78039092964764,119.05882263183594,360500
2023-11-02,119.82393753491263,120.37598738258195,119.10724292668908,119.68834686279297,384300
2023-11-03,120.5115690585658,122.00307372967934,120.5115690585658,121.40259552001953,278000
2023-11-06,121.32512525461992,121.77064591937194,120.82150380061947,121.24765014648438,173500
2023-11-07,120.69560295651807,121.05394658334917,120.25976944156056,120.6278076171875,205000
2023-11-08,120.94740785382807,121.53819896716833,120.49221480588676,121.17985534667969,175800
2023-11-09,121.73191177707123,121.73191177707123,120.16292436681583,120.47284698486328,118600
2023-11-10,120.32755166268454,121.82874351309181,119.98857500298719,121.76094818115234,195600
2023-11-13,121.44134731636984,121.5285169718777,120.45347135181835,120.60842895507812,183100
2023-11-14,121.98370683076678,123.83356258630272,121.36386165561503,123.8238754272461,267400
2023-11-15,123.79483004673568,124.74397219433762,123.33962959784179,123.68829345703125,388600
2023-11-16,123.63018225230408,124.56962982804686,122.84568489375135,123.53333282470703,217000
2023-11-17,124.51153291619218,125.01516180788978,123.59145218705692,123.90137481689453,162700
2023-11-20,123.43647327736079,123.63017951740747,122.44859731510405,123.3105697631836,213900
2023-11-21,123.44617025127671,124.2597217458794,123.19435581376419,123.88200378417969,160600
2023-11-22,124.40497858710981,125.13136033998698,123.3493073197142,124.52120971679688,174800
2023-11-24,124.90861400007235,124.90861400007235,124.06601585130784,124.48246765136719,65900
2023-11-27,123.79483329712718,124.2597209179653,122.85537828459665,123.00065612792969,367500
2023-11-28,123.00064589587653,123.01033305506304,121.53819520248676,121.6544189453125,218000
2023-11-29,121.68349129449044,122.41956033123873,120.98616351116453,121.4219970703125,331800
2023-11-30,121.4994637924141,123.1265593780295,120.87961855876425,122.89411926269531,301000
2023-12-01,122.43890670746781,124.492141070173,122.43890670746781,124.06600952148438,218300
2023-12-04,123.43647582266271,124.8214514528582,122.89411311762335,124.37593078613281,192000
2023-12-05,124.21130136557021,124.63744776596863,121.91593196679493,122.02246856689453,178000
2023-12-06,122.40986986130585,123.29121672727666,121.91592812994705,122.3905029296875,179500
2023-12-07,122.26457897811483,123.10718450188428,122.0224517184367,122.50670623779297,254000
2023-12-08,122.38080197837209,123.48490168465685,121.66410736304317,123.3105697631836,265800
2023-12-11,123.25246840515973,123.65924044805773,122.36143442992014,123.55270385742188,338000
2023-12-12,123.63017515188055,124.06600863474264,122.69072024095559,123.46553039550781,210300
2023-12-13,123.17497167895708,124.92797794750753,123.17497167895708,124.54056549072266,425000
2023-12-14,125.01514938630581,125.91585570519116,122.88442505238625,123.38805389404297,412900
2023-12-15,123.15562026534607,124.53090140906804,122.0030920759156,122.01277923583984,713000
2023-12-18,122.71977536097222,123.2040298643566,121.91591111196121,123.049072265625,240500
2023-12-19,123.68829501618633,124.0950744497936,122.06119944917108,122.2549057006836,659100
2023-12-20,122.05151829502903,122.94255231755521,121.5091555423822,121.61569213867188,346400
2023-12-21,122.26459447296418,122.26459447296418,120.91836732967452,121.94499206542969,421900
2023-12-22,122.41953577357906,123.03938092571772,122.14835444316053,122.29362487792969,312200
2023-12-26,122.16773575790391,122.8747506432993,121.63505280389793,121.86750030517578,274700
2023-12-27,122.14835976545038,122.48733644324355,121.09268109559463,121.33480834960938,283100
2023-12-28,121.04426606095606,121.8384431978116,120.4825290304847,121.25733184814453,343600
2023-12-29,121.24765553578665,121.4123003079572,119.66898098751031,119.72709655761719,313500
2024-01-02,118.74888942641708,120.19196577165468,118.43896684108141,119.01038360595703,313100
2024-01-03,121.20892170427999,123.25247660366368,119.27190340261875,121.41230773925781,531700
2024-01-04,121.23796483552567,121.95465947338585,120.22102736343857,120.30819702148438,353300
2024-01-05,119.88206154807094,120.45348578960612,119.11693843195954,120.28883361816406,423000
2024-01-08,120.16290832968755,121.21858695564104,118.51644602651325,120.43408966064453,352400
2024-01-09,119.81424996434863,120.71496364841524,119.0975553585858,120.70527648925781,250300
2024-01-10,120.54063528985738,121.47040308972274,120.317882346619,121.24765014648438,279600
2024-01-11,121.43166549949392,122.97159877535763,121.00552652992823,122.84568786621094,323100
2024-01-12,123.86261539265269,123.94009788602922,121.95465148079455,122.44859313964844,231700
2024-01-16,121.91592895752716,122.82632992167458,121.55758530161769,122.81664276123047,257500
2024-01-17,121.97402717748967,123.26213854603338,121.92559877129759,122.70040893554688,336900
2024-01-18,123.31057880230377,125.91586326695527,122.33238253849082,125.0732650756836,444200
2024-01-19,125.62530563186141,127.32019633787085,124.49213712639097,126.68097686767578,418000
2024-01-22,126.77784750777892,127.65919442058058,126.44855792880165,127.05872344970703,266200
2024-01-23,127.64951951375063,127.69794793092298,126.22580976289659,127.67857360839844,217800
2024-01-24,127.95940434814659,128.12404910475004,126.42915835478719,126.66160583496094,294400
2024-01-25,127.87224954144052,128.2112336225098,126.27421550960058,127.11681365966797,332300
2024-01-26,127.53327613099292,128.4146229928944,127.2620947547581,127.55265045166016,219900
2024-01-29,126.92307383512342,128.41457079818898,126.38071130309959,128.0852813720703,187800
2024-01-30,127.87220826616515,128.89882517010608,127.48481067993973,128.0852813720703,228400
2024-01-31,128.6002301485407,128.98884744345068,125.48165603714608,126.18115234375,537500
2024-02-01,126.74464635093254,127.37612912190053,125.91884750498805,126.78350067138672,298800
2024-02-02,126.25887748257338,126.98751824296068,125.02504164419864,126.39488983154297,344800
2024-02-05,125.4525282918113,127.70644960536835,124.40328369224241,126.92922973632812,319500
2024-02-06,126.76405604375617,127.6578535856557,125.61766837835263,127.39555358886719,369700
2024-02-07,127.66755522496554,128.64878592190652,125.68564443955925,128.04644775390625,393000
2024-02-08,127.89101966708147,130.99988380062553,127.79386164056334,128.3573455810547,620700
2024-02-09,128.34765326293345,135.24545901063345,127.76473467256268,135.00257873535156,650900
2024-02-12,135.19685465206098,136.46954468413216,133.59383624109773,133.6909942626953,491300
2024-02-13,132.79721865694546,133.41899155451992,131.13591108923504,132.05885314941406,275900
2024-02-14,132.37943171551453,133.5452686480157,131.32047749858393,133.26351928710938,335000
2024-02-15,133.26351222976635,133.88528497619748,130.73756693299123,131.1941680908203,471400
2024-02-16,131.51477747504006,134.06988214666194,131.19417380404235,133.58412170410156,453900
2024-02-20,133.2343951113686,136.14895823746613,133.0498037415049,135.71177673339844,373000
2024-02-21,135.11915707414406,136.11982262644284,135.03172373250294,136.01295471191406,276300
2024-02-22,136.4695496025818,138.36401249814983,136.08094715065158,137.44107055664062,295700
2024-02-23,137.9268263528802,138.00454980547522,136.59584743474338,137.33419799804688,190300
2024-02-26,137.47022831952583,138.0142777346372,136.79016655063663,137.87826538085938,199200
2024-02-27,137.87826692977475,138.1308570684184,135.81864702821983,136.31411743164062,244600
2024-02-28,135.67293503038823,137.21766506606434,135.36205594266366,136.4113006591797,189600
2024-02-29,136.62501092668225,137.59653198323437,135.84779111659356,136.45985412597656,250600
2024-03-01,135.89636538153738,136.78043824566248,135.5854715386809,136.294677734375,151400
2024-03-04,136.68327855712852,138.0725463362649,136.55697609566792,137.9171142578125,260300
2024-03-05,138.21830138260887,139.13153352462706,137.7033964215534,138.461181640625,190200
2024-03-06,138.85948674736358,139.54927316677816,138.4223052706071,138.99551391601562,184000
2024-03-07,140.38479534655966,141.00656824163036,139.74358787920184,140.530517578125,250100
2024-03-08,140.58881247786712,140.9385606359244,138.89836057655117,139.0149383544922,185200
2024-03-11,138.72346042502105,139.29666901267245,137.9365308813045,138.67489624023438,226700
2024-03-12,138.7331710776744,138.78175008177573,137.45075652570657,138.35427856445312,242200
2024-03-13,138.9274874603586,138.9274874603586,136.91643209967154,137.139892578125,336800
2024-03-14,137.33421990117986,137.5868100442241,136.36269882514554,136.9164581298828,235200
2024-03-15,136.0517998322653,138.35431477607804,135.76035537983867,136.98446655273438,599500
2024-03-18,136.91644460546308,137.27591744856747,134.9734026453255,135.29400634765625,299700
2024-03-19,134.9248323837434,136.32382490396157,134.9248323837434,135.53688049316406,253000
2024-03-20,135.65346636305446,136.08093792573945,135.17741579111308,135.98377990722656,220000
2024-03-21,136.31411913042012,137.56738961386023,135.33288818521672,137.1204833984375,255800
2024-03-22,137.9657000290801,138.3931716662274,137.0330481155177,137.5576629638672,276000
2024-03-25,137.17875500009464,139.94759563375453,137.1496105575705,138.88864135742188,316300
2024-03-26,138.7623528695866,140.20019986781864,138.55832692713028,139.12181091308594,314200
2024-03-27,139.57841110454743,141.01625793912805,139.57841110454743,140.54022216796875,218200
2024-03-28,140.69568229822846,141.21058725679168,139.55898965088838,139.7921600341797,247800
2024-04-01,139.69498275629263,139.69498275629263,138.07254464302545,138.23770141601562,204400
2024-04-02,137.8005474729194,137.8005474729194,136.39184486109863,136.62501525878906,202600
2024-04-03,136.66384822637758,137.16904326365426,135.88662851308266,136.8678741455078,258700
2024-04-04,137.79082770836482,138.68462526566978,136.95531904023974,137.71310424804688,403600
2024-04-05,137.35364110181234,138.69432997574083,136.9358793711853,137.69366455078125,288300
2024-04-08,137.63539087239522,138.32517736811184,136.39184506466097,136.5084228515625,312500
2024-04-09,136.42098534111196,137.08162736990792,135.3911753903345,136.31411743164062,242600
2024-04-10,135.02198614707606,136.2266775391274,134.50708119646376,135.43002319335938,200700
2024-04-11,135.2940122618255,136.05179747346585,134.50708260544775,135.167724609375,265300
2024-04-12,134.23504002650498,134.99282513721704,132.08798715423154,133.29266357421875,299200
2024-04-15,134.66253312030298,135.82835541361058,133.90474788844134,134.2642059326172,319600
2024-04-16,133.86586195888154,135.4203013711966,133.44811507605868,134.64308166503906,281700
2024-04-17,134.92483683201934,135.5077405185057,134.40993190471795,134.45849609375,565400
2024-04-18,134.44878861647487,135.46888861629466,134.28363182781587,135.14828491210938,246600
2024-04-19,135.09970992098616,135.93521858652753,134.8179753494098,135.37173461914062,276600
2024-04-22,135.57574676552883,137.1301713362783,135.28428752594058,136.32382202148438,298800
2024-04-23,135.78947777534367,137.13989120783145,135.5465975549377,136.1586456298828,417200
2024-04-24,136.36327776431676,137.28892764322538,136.06122500182607,136.42173767089844,559200
2024-04-25,136.25608912785975,137.6299563309936,135.3596692495126,136.58737182617188,694400
2024-04-26,138.36076128932666,144.7039147819686,138.26331818639707,139.65667724609375,489500
2024-04-29,141.18644405478383,144.22649366798709,140.67002827732176,142.62852478027344,676700
2024-04-30,142.004909646234,142.35568398559658,140.36795777329885,140.6797637939453,585100
2024-05-01,141.2741399676868,143.43724605293235,140.87464405380578,141.65414428710938,359600
2024-05-02,142.02439483195232,142.96953644520997,141.56643900417882,142.1802978515625,356500
2024-05-03,143.33978450110888,143.3592760930588,141.12795714823582,143.04747009277344,303300
2024-05-06,143.97311219834887,145.25928957827287,143.38849828106964,145.22030639648438,260200
2024-05-07,144.51877476610764,146.52597749323783,144.51877476610764,145.8828887939453,392900
2024-05-08,145.8828911206105,147.00341231365334,145.64903662593957,146.9254608154297,223500
2024-05-09,147.13009939399845,147.84138644002505,144.82084365124953,145.25930786132812,299100
2024-05-10,145.13263555860982,145.1813571083666,144.2946754530738,144.68443298339844,186300
2024-05-13,144.72339575642974,145.64904569541716,143.09619715747255,144.08030700683594,167500
2024-05-14,144.49930037798347,144.50903874086748,143.69057022672388,144.1095428466797,137600
2024-05-15,144.16802780381772,144.53827890002992,143.00852322640148,143.5054473876953,211100
2024-05-16,143.5931171809895,144.10953286493412,142.67720563052816,143.75875854492188,235500
2024-05-17,144.06083161219536,144.3726227596562,143.3592829457471,143.88543701171875,169500
2024-05-20,143.80748238942644,144.60647413522753,143.27157510477068,144.37261962890625,163400
2024-05-21,144.14850961965013,144.86953495193305,143.3202879692016,144.78184509277344,280400
2024-05-22,144.2751965381992,145.01571353298542,143.6905676854479,144.9767303466797,283300
2024-05-23,144.85010062043375,145.1326618718855,143.7782858023776,143.93418884277344,171700
2024-05-24,144.67466674114488,145.01570269104084,143.58337548984295,144.29466247558594,162300
2024-05-28,143.836724802742,143.9926278204598,142.08286789047202,142.95005798339844,318400
2024-05-29,141.91719871726886,142.94029173473893,140.80641583571733,141.12796020507812,229700
2024-05-30,141.410543437618,143.21312182875525,141.28387038236036,142.3946533203125,328100
2024-05-31,142.34592221115324,144.04133389426428,142.18028084802555,143.90492248535156,358900
2024-06-03,144.69416726211233,144.69416726211233,142.53106134998768,144.36288452148438,266200
2024-06-04,143.86593620254556,144.58697641568443,142.9402863143089,144.39210510253906,287900
2024-06-05,143.93417223495806,144.40186643444855,143.31057501306057,144.12904357910156,229200
2024-06-06,144.21670298010207,144.21670298010207,141.6735930769153,142.21925354003906,197600
2024-06-07,142.03415664916184,142.57980238305223,141.72235059109238,141.81979370117188,179100
2024-06-10,141.1182475484224,142.0731276003924,140.2997789324481,141.8587646484375,125800
2024-06-11,141.19618149643244,142.0049116476871,140.65053582034008,141.77105712890625,147700
2024-06-12,142.49208619477034,142.56028446504888,140.37770193248102,142.09259033203125,221300
2024-06-13,142.1510502401924,142.77464737345872,141.3033518363989,142.09259033203125,232400
2024-06-14,141.37155067038904,141.6541267179326,139.99768335221012,141.04026794433594,141500
2024-06-17,141.15718412148226,142.92079402863507,140.86488458704773,142.57977294921875,303800
2024-06-18,142.72593269483835,143.9049287478212,142.7161943322524,142.93055725097656,219900
2024-06-20,142.9013265736243,143.74902501392364,141.93669344423844,142.07310485839844,199900
2024-06-21,142.13156155358197,143.3690174832924,141.5859159092863,143.08645629882812,444100
2024-06-24,143.44697885929565,144.43108875923312,142.91107154042683,142.9597930908203,182900
2024-06-25,143.02799086064448,143.0377440913265,140.79668659073084,141.1474609375,194500
2024-06-26,140.5530858194562,141.07923987621706,139.29615315358203,140.0269317626953,192400
2024-06-27,140.1828155517578,140.19256878158996,138.6238301546421,140.1828155517578,377300
2024-06-28,140.0951327056182,140.62130164013826,136.49969950140468,137.2012481689453,435100
2024-07-01,137.7566365411792,137.85406476284226,134.84326063403208,134.98941040039062,306400
2024-07-02,134.930951195947,136.899185643609,134.2294025783195,136.80174255371094,259400
2024-07-03,137.2694710198884,137.77613352960557,136.96741821316812,137.6007537841797,143300
2024-07-05,137.37664516545647,137.81510937338362,136.14892754198513,137.2889404296875,207000
2024-07-08,138.01971219176104,138.8479338848322,137.87356241897373,137.88330078125,249300
2024-07-09,137.24996524910202,137.64946111828195,136.16841232749826,136.4509735107422,238400
2024-07-10,137.14277603381836,138.00022763276843,136.96739631643013,137.66893005371094,142000
2024-07-11,137.58126568918084,139.62745197757425,137.14280144673384,138.44845581054688,244500
2024-07-12,139.73460255093156,141.76129679642114,139.73460255093156,140.8843536376953,263900
2024-07-15,141.05002056298503,141.956193837872,139.47154340588315,139.7541046142578,319900
2024-07-16,140.1633376598292,141.5761732749764,140.1633376598292,140.85513305664062,178800
2024-07-17,140.64078357711574,142.03414260124,140.64078357711574,141.1474609375,242300
2024-07-18,140.90385313125856,143.47619311255724,140.89411476933762,142.5310516357422,434200
2024-07-19,142.83311887197172,142.83311887197172,140.95258895745775,142.1997833251953,251200
2024-07-22,142.24849707102436,143.7782525564522,141.5274568267193,143.41773986816406,235700
2024-07-23,144.08031236478044,144.70390954486243,141.9366979874817,142.29721069335938,234500
2024-07-24,142.32643685826764,142.87208246083867,140.21203784671354,140.44589233398438,250600
2024-07-25,139.60532117118015,140.79777835848,138.03166963150022,138.2955780029297,558100
2024-07-26,139.89855967497675,147.87432007213235,139.13617092314783,143.34886169433594,562800
2024-07-29,143.27067741026931,145.00072044456283,141.8925072827085,144.463134765625,390900
2024-07-30,144.0526005590325,144.5608497597373,142.12707613546905,142.4593963623047,411000
2024-07-31,143.1924470445361,145.4893967000446,142.12705972104024,143.66160583496094,280600
2024-08-01,143.56388751848672,146.1638212279078,142.14661231103588,143.7104949951172,335300
2024-08-02,143.27064734257746,143.6811631618967,140.50453880627654,142.40074157714844,213500
2024-08-05,140.19175816641953,140.19175816641953,136.33094072792318,137.50384521484375,448500
2024-08-06,138.13919923295967,142.79172750727204,137.92416497226154,141.6579132080078,476000
2024-08-07,142.7135341480353,143.9353129604213,140.23088616355557,140.3579559326172,353600
2024-08-08,141.19851020506624,142.86012605228407,141.19851020506624,142.27366638183594,268600
2024-08-09,142.12705608906288,142.12705608906288,140.23085342859548,140.70001220703125,263200
2024-08-12,140.7196023508052,140.92485284608276,139.54669763491262,140.05494689941406,221100
2024-08-13,140.2699807407797,142.0195764047253,139.86924861313025,141.11056518554688,212000
2024-08-14,140.8759715764874,141.54061200957045,140.25042149828965,140.65115356445312,115700
2024-08-15,141.72633364426625,144.01349986295762,141.72633364426625,143.69094848632812,277500
2024-08-16,142.8112726046603,143.52478720605873,142.32256111329048,143.40750122070312,250600
2024-08-19,143.01655169361428,144.39470689643647,142.62557351448993,143.65187072753906,191200
2024-08-20,143.66162057853262,144.961594887798,143.66162057853262,144.76611328125,387200
2024-08-21,144.82477331506968,146.19317455052297,144.13081129301386,145.95858764648438,267300
2024-08-22,146.1931430052955,147.0043908471752,145.31345349068744,145.62623596191406,200400
2024-08-23,146.28111414215468,147.131467288796,146.06607991196887,147.0435028076172,221400
2024-08-26,147.27808563075303,149.22316270583966,146.7502837904236,146.76983642578125,235500
2024-08-27,146.62319560495607,148.1186513646186,146.45703551102568,147.7863311767578,208300
2024-08-28,147.52243900517198,148.53896722738338,147.52243900517198,148.11866760253906,249000
2024-08-29,149.10588837840956,149.45776127089994,147.7961450785867,148.84197998046875,187100
2024-08-30,148.76376076539145,149.97577051724159,148.21640633368162,149.73141479492188,178500
2024-09-03,148.67579943804665,148.9397077997503,146.34952813965234,146.65252685546875,362400
2024-09-04,146.2224723339692,147.49311017712768,146.2224723339692,147.3269500732422,175800
2024-09-05,147.66907259304693,148.33371309202553,146.5645798008299,147.31719970703125,200600
2024-09-06,146.9848666423844,149.66299595561912,146.9848666423844,148.93971252441406,319100
2024-09-09,149.1254188548598,149.60434653021005,148.02092620644984,148.48031616210938,241500
2024-09-10,148.4412283503302,149.34045573341479,148.02094361320775,148.08935546875,158100
2024-09-11,147.38560462789548,147.47358403097817,145.27438232544125,147.43447875976562,178000
2024-09-12,147.48337070700538,148.57807980453575,146.58414324627788,148.5292205810547,200400
2024-09-13,148.75401548591918,149.55549462674657,148.47055445109223,148.84197998046875,138600
2024-09-16,149.58480892545694,149.711878687663,148.63672233934471,149.53594970703125,182900
2024-09-17,150.52314424187358,152.05770553358903,148.44122844829255,149.57504272460938,259900
2024-09-18,150.288514383845,151.97946645390005,149.2622324433925,149.61410522460938,214200
2024-09-19,151.52009072611202,155.2245166759197,151.52009072611202,153.35763549804688,412400
2024-09-20,152.78097785998767,152.78097785998767,150.9922920842791,152.3900146484375,663300
2024-09-23,152.64413901555898,153.36743736156149,151.24643136778755,152.4388885498047,315800
2024-09-24,152.6539129888592,153.53360261442796,152.5073055084099,153.09376525878906,246200
2024-09-25,153.74863062888252,154.30575394629471,152.35090807666947,153.5922393798828,284100
2024-09-26,154.3741917455601,155.46890073822925,154.13960485529182,154.80426025390625,371600
2024-09-27,155.09744791866115,157.90266158994953,154.68693211868234,156.28013610839844,354300
2024-09-30,155.6936899424124,156.79818261159085,155.34181709559473,156.57337951660156,289800
2024-10-01,156.91547599488553,156.91547599488553,155.45912532444558,156.3583526611328,192200
2024-10-02,156.25081826197203,156.49517397582386,154.39372080241395,155.16587829589844,186900
2024-10-03,154.42305944347365,156.83729535757135,153.10353247642593,155.3516082763672,367000
2024-10-04,156.3290093135559,157.8244650455017,155.73278079260248,156.95455932617188,350500
2024-10-07,155.79146245290912,156.03581822028707,154.4426138444093,155.10726928710938,223300
2024-10-08,154.70648269886658,155.42978095454123,153.55313093055446,155.08767700195312,205900
2024-10-09,154.77493978776437,156.43655592393026,154.55012175690058,156.09445190429688,152600
2024-10-10,154.4816916598629,155.78166590095645,154.4816916598629,155.62527465820312,168500
2024-10-11,157.30643565031355,158.26430586600358,156.729759749031,157.9026641845703,194400
2024-10-14,161.26501674638376,163.9724675604005,159.76956083662878,163.41534423828125,469700
2024-10-15,163.54239287081296,165.8295586827653,162.73113014312963,164.87167358398438,397300
2024-10-16,164.89125425631357,165.37996574783452,162.1740195566003,162.2913055419922,330000
2024-10-17,163.21007464638268,164.5198326911605,162.76046845617475,164.0995330810547,238200
2024-10-18,165.28222016135715,165.28222016135715,163.99201476040307,164.8228302001953,171500
2024-10-21,164.66645267293757,164.6860053087812,162.54544656978644,162.57476806640625,217900
2024-10-22,161.97853331620303,162.613852271317,161.0890748476109,162.06649780273438,228500
2024-10-23,162.75071325021858,164.18752638480976,162.40862411749714,163.86497497558594,318100
2024-10-24,164.96263491104682,164.97243006379486,162.8359053646187,163.22793579101562,547300
2024-10-25,165.5506581898616,166.4621158464969,161.32662941673635,165.54086303710938,518900
2024-10-28,166.51109693898178,167.9909874127624,165.39383645811452,165.72706604003906,350000
2024-10-29,165.6584719985112,166.1093032703483,164.29619798424773,165.33505249023438,338100
2024-10-30,164.99203323960487,166.8051234675815,164.76661013936223,165.65846252441406,290300
2024-10-31,165.71726236332717,166.8835285592377,164.511800602721,164.56080627441406,329900
2024-11-01,164.74701596713246,167.57937026995276,164.27657947244072,166.0308837890625,316300
2024-11-04,166.24649215601715,167.16774490614142,164.82540251348084,164.90380859375,191800
2024-11-05,164.39418823784416,166.96192375931884,164.39418823784416,166.9129180908203,206200
2024-11-06,171.65639773514667,171.65639773514667,168.7064415133303,169.7061004638672,264100
2024-11-07,170.72533703485217,171.96021416270565,170.07849805877953,171.2251739501953,412300
2024-11-08,171.21537219293572,174.29274010121063,171.0095692978779,172.2542266845703,309200
2024-11-11,172.80306637183605,174.47894973522423,172.39143067982758,172.63644409179688,189100
2024-11-12,173.12646726649535,173.70471027192264,171.46037909110905,172.19541931152344,179800
2024-11-13,171.99940490722656,172.87165200345066,171.55838378296605,171.99940490722656,168400
2024-11-14,171.65637889220199,172.28361258645606,170.4411220214521,170.62733459472656,198200
2024-11-15,169.51987152643795,170.29410728655165,162.8555040894364,163.16912841796875,620500
2024-11-18,163.07112374085875,164.4726082153111,161.05221564532687,163.36514282226562,384400
2024-11-19,163.1005165746191,164.32558356152833,162.8849035885686,163.57093811035156,287600
2024-11-20,163.6689523651395,165.57025875538363,162.3458740139482,165.36444091796875,221800
2024-11-21,165.32524989622468,166.83452591248917,164.3942019349008,166.49151611328125,205100
2024-11-22,166.78550102159357,168.63781653249123,166.78550102159357,168.08897399902344,241600
2024-11-25,168.61822873869966,170.54893557134125,168.31441450843965,169.0592498779297,270100
2024-11-26,169.41204948980848,169.41204948980848,167.74596152202398,168.6083984375,140300
2024-11-27,169.2258486988311,170.41172010241513,168.09879307136399,168.30459594726562,167200
2024-11-29,169.14745603968092,170.0295132982539,168.65742921417322,169.5100860595703,117300
2024-12-02,169.5296846654076,169.65709643169575,167.4323703477295,169.31407165527344,170900
2024-12-03,169.99028664377565,169.99028664377565,167.67735964872438,168.9612274169922,160100
2024-12-04,168.46142635281086,169.4414800322046,167.61857959035495,169.1474609375,173400
2024-12-05,168.57901699001582,169.0004478209138,167.1285418265622,167.6871795654297,245000
2024-12-06,168.17721164137058,169.2062560061618,167.44217140684438,167.73617553710938,209200
2024-12-09,168.13799201141873,170.00989796299024,166.8345189382819,167.3833465576172,301700
2024-12-10,167.314763972231,167.95179287684704,164.83522938002554,167.5009765625,287000
2024-12-11,168.4516157508474,170.6273359159199,168.32420399879283,168.87303161621094,418600
2024-12-12,168.24578529682086,169.1572428430024,167.37353826575998,168.2163848876953,178300
2024-12-13,167.5009440388136,167.5891452630469,166.43268933350987,166.8050994873047,153200
2024-12-16,166.74632140113093,167.52055717676743,164.24718169284583,164.28639221191406,236100
2024-12-17,163.57091532576325,163.58072543112786,159.59190069924725,159.8369140625,511900
2024-12-18,160.42498045548814,161.14041541532916,154.7602716927562,155.05429077148438,468600
2024-12-19,155.34829094522857,158.34726752667316,155.07387713324243,155.70111083984375,404700
2024-12-20,155.55410914655246,156.59296357357135,154.32904214215637,155.02487182617188,730200
2024-12-23,154.03504524233003,155.73053403322555,153.82924233044926,155.35812377929688,194900
2024-12-24,155.61290160454055,156.24013527889497,154.77005495264896,156.17153930664062,100500
2024-12-26,155.26008773522096,156.44595915755792,155.26008773522096,155.6815185546875,164500
2024-12-27,154.67207884417124,156.39696793613152,154.46626099156944,154.9954833984375,145000
2024-12-30,153.86842421673967,154.34865589247661,151.90831690187673,153.6038055419922,221700
2024-12-31,154.14283313865855,155.09348635246576,153.06476816802203,153.9664306640625,317100
2025-01-02,154.50542966476186,154.95626085871288,150.38920791910837,151.08505249023438,239400
2025-01-03,150.9674458911304,152.61394367101406,149.82078500459767,152.39833068847656,250700
2025-01-06,150.92825644983694,151.55549016417848,148.41932159247074,149.8697967529297,369000
2025-01-07,152.80998345885158,152.94719038976268,149.55621268820212,150.36964416503906,361200
2025-01-08,149.84039419615527,151.1830628417546,149.05634832584286,151.07525634765625,228600
2025-01-10,149.67378625415643,151.22227272909234,149.5365793490067,150.38922119140625,350800
2025-01-13,149.87957661755325,151.61427552341226,149.87957661755325,150.8204345703125,349300
2025-01-14,151.72208498613796,152.34931864881253,150.41861199327377,151.5260772705078,196900
2025-01-15,153.0059503798729,153.7899961848265,151.09484901146914,152.45712280273438,206100
2025-01-16,152.7805291601192,154.03499635872686,152.21209637412062,153.2901611328125,346300
2025-01-17,153.83899910671454,154.79944734957013,152.5747217171077,152.97654724121094,231900
2025-01-21,153.59400049694958,157.0633836408648,153.59400049694958,156.6419677734375,270900
2025-01-22,156.16174421991363,157.54362344855716,155.18169057482152,155.8971405029297,280000
2025-01-23,155.29927607376447,156.62233925696134,154.5838262889657,156.43612670898438,149800
2025-01-24,156.4655345596154,157.26918560397357,154.08401174390775,155.14247131347656,329600
2025-01-27,155.09348331003815,155.75011743220608,153.52539155704252,155.29930114746094,317000
2025-01-28,154.42704949078208,157.15159724174742,154.42704949078208,155.2600860595703,204300
2025-01-29,155.61291457845172,155.65212509823508,153.49599514310032,153.97622680664062,265800
2025-01-30,154.6720768692887,155.5149086664643,153.4568049388864,154.97589111328125,274200
2025-01-31,154.75046688049648,156.21075221700386,153.63320630664722,154.0154266357422,834100
2025-02-03,151.49669007178431,153.62340462840817,151.0654640871359,152.86875915527344,364600
2025-02-04,152.9765565302281,155.299293635513,152.9765565302281,154.554443359375,302400
2025-02-05,155.56680214959917,156.92315132969566,155.07537302605425,155.6061248779297,262600
2025-02-06,157.1000465610709,157.1000465610709,152.70666933390916,153.76815795898438,446600
2025-02-07,154.9181067066418,155.19330580645521,139.60517395113374,140.7256317138672,1221500
2025-02-10,141.78711035544322,142.12129352206097,138.48470639401995,140.82391357421875,621900
2025-02-11,139.83121423337005,140.61750364616478,137.8556600216051,139.85086059570312,377300
2025-02-12,138.55351384739762,141.03032057107268,137.53133297854282,139.27099609375,423500
2025-02-13,140.3030162479326,141.3153590533059,139.0351356946295,140.3226776123047,665900
2025-02-14,141.22690931883105,142.81913494082784,140.27353558295644,142.30804443359375,512800
2025-02-18,142.30801997228963,144.76516526152002,141.43327684921258,144.38185119628906,489600
2025-02-19,143.63490379036486,144.96176842430987,143.11399011860314,144.51947021484375,331000
2025-02-20,144.45068672182066,144.89296996096067,143.41868249900884,144.1656494140625,283100
2025-02-21,144.50962590768984,144.86345542520576,142.71099377675264,143.83145141601562,451900
2025-02-24,143.67418921142476,144.76516229739394,141.88539527604814,143.1139678955078,353300
2025-02-25,143.3793614383485,145.7873610696006,143.22210052435642,145.17799377441406,336700
2025-02-26,144.13615069776068,146.62278077273558,144.10666615119783,144.12632751464844,735600
2025-02-27,143.7233423633532,144.65705460178307,142.86826057620084,143.13363647460938,262800
2025-02-28,143.65455331584818,144.4310046691492,142.15078151982524,144.23443603515625,348700
2025-03-03,144.45066986764067,146.2886098899811,143.19261258000728,144.07717895507812,394100
2025-03-04,143.04517170760187,145.413863500686,142.65203443781988,143.43832397460938,490100
2025-03-05,143.54643172433074,146.2984374655058,143.54643172433074,145.8954620361328,445100
2025-03-06,145.0305485219981,148.9030120941682,144.53911943917907,148.5590057373047,471700
2025-03-07,147.92997950600335,150.7311313223095,146.62277632487553,150.16107177734375,480200
2025-03-10,149.46327062147788,151.3601799639148,147.66463811184974,147.98898315429688,391100
2025-03-11,147.76290385774493,147.9791338698189,144.74553686653798,145.3549041748047,304000
2025-03-12,145.69888686695407,145.69888686695407,143.0648194196245,143.52676391601562,299700
2025-03-13,143.900274240468,144.67672562820923,141.29569098355023,142.27854919433594,238400
2025-03-14,142.74050098258454,144.37204929445636,142.06232638323863,144.14599609375,223600
2025-03-17,143.9985523832392,145.46301652973597,143.3597005392626,145.30575561523438,225200
2025-03-18,144.86347189053822,145.00107144092166,143.28106956251574,143.7921600341797,219900
2025-03-19,143.83145115048603,144.93226242362806,142.9763694002447,144.46047973632812,279600
2025-03-20,143.62507975791536,144.8929602918042,141.26621097787046,142.7110137939453,332800
2025-03-21,141.5315735327772,142.96655302987472,139.9196867674318,142.3375244140625,601900
2025-03-24,143.25157833447938,145.6399164898611,142.42598107068508,145.45318603515625,463800
2025-03-25,145.94461117942933,146.67191660765496,143.4284817335018,144.68655395507812,325200
2025-03-26,144.5292868819481,146.1509967511721,143.79214330553276,146.01339721679688,630400
2025-03-27,145.73819064349806,147.32059270594215,144.50961807940246,146.78985595703125,312700
2025-03-28,146.73087685638546,147.42871269525497,143.26138901740174,144.4113311767578,239800
2025-03-31,144.06733927166468,146.53430765527222,143.59557159214165,145.83648681640625,372500
2025-04-01,146.3279289386792,147.45820983366664,144.85364168579534,146.54415893554688,240000
2025-04-02,145.4630159103769,148.53936692435062,145.4630159103769,147.94964599609375,247600
2025-04-03,144.24425830925108,147.47787005738485,143.9494128587316,146.12152099609375,352900
2025-04-04,142.73066750752537,145.42370434629547,137.63945428633932,137.7770538330078,531600
2025-04-07,134.00287530876898,139.6837941624517,128.60699371434606,132.3418426513672,629900
2025-04-08,135.025053604175,136.9219625810332,129.02961306087627,131.3688201904297,473800
2025-04-09,130.89704037690942,141.94437131089686,129.06893862699687,141.28585815429688,491800
2025-04-10,137.60014014324574,140.9123672890104,135.21180205228458,138.34710693359375,309000
2025-04-11,138.45522828256912,142.2294151261458,137.3446087271347,141.6396942138672,203000
2025-04-14,143.30071647529343,143.8904223472296,141.32516206166184,143.29087829589844,249300
2025-04-15,143.59560325421714,144.02804830741772,141.30554162152515,141.47262573242188,250700
2025-04-16,141.5905608939007,143.3204010585323,140.12611166033892,142.5144500732422,307700
2025-04-17,142.9075815858467,143.26141115086992,138.2979890544082,141.364501953125,390600
2025-04-21,140.84358440349993,141.58072806053443,138.6812993423107,140.13592529296875,291600
2025-04-22,142.02300391438817,144.30324204095515,141.12859939074895,143.51695251464844,217800
2025-04-23,145.3352237379666,146.76037999339664,144.69637196618555,145.51214599609375,537000
2025-04-24,145.39419037453416,149.3944300082923,142.96654468434576,148.8636932373047,424500
2025-04-25,148.26416156627027,150.3773006417577,145.04038795490476,146.5048370361328,220500
2025-04-28,147.23214190355793,148.44105313058392,145.73819343775142,147.13385009765625,235200
2025-04-29,147.1928352219858,149.37478157519996,146.4556915890682,147.7235870361328,359900
2025-04-30,146.51470299519116,147.41893088716392,144.68658584481213,147.37960815429688,556200
2025-05-01,146.34446689472773,148.3949671666266,144.87560983167245,146.1768798828125,445300
2025-05-02,150.8200800146687,150.82993276495682,145.69382189987473,149.8441162109375,431600
2025-05-05,149.28220335297306,151.04682352421423,148.74001624656938,149.3314971923828,267600
2025-05-06,148.11895410159835,149.88355931551433,147.30072446354023,148.77944946289062,312000
2025-05-07,149.725822860132,150.97779905174502,148.4836843764286,149.24276733398438,318400
2025-05-08,149.63710557992187,152.37768975892342,149.0949184458267,151.18484497070312,302500
2025-05-09,151.72702915659627,152.11149701025283,150.77078589758978,151.14540100097656,231600
2025-05-12,153.58036864826659,154.36902497347126,151.52001546847515,153.314208984375,352500
2025-05-13,154.09298971226121,154.09298971226121,151.02709949704072,151.4608612060547,339400
2025-05-14,151.4411368076829,151.4411368076829,148.82872891175197,150.3173065185547,350100
2025-05-15,150.18915951898913,153.2747551350197,150.18915951898913,152.7522735595703,278100
2025-05-16,152.9790195330319,154.9210795243073,152.3973913234781,154.78306579589844,278600
2025-05-19,154.14228486208216,156.09419752688567,154.09299102338977,155.837890625,185400
2025-05-20,157.98696796016725,157.98696796016725,155.6703079013984,156.28150939941406,388100
2025-05-21,154.635175921722,155.4139643336995,153.61978613582386,154.23098754882812,319800
2025-05-22,154.14229666137166,155.02952565627956,153.35364030902645,154.4281768798828,278900
2025-05-23,152.91987932375972,153.96484260280818,152.07207637318606,153.72825622558594,260500
2025-05-27,154.8027705397575,156.1927754755183,154.46759652531446,155.916748046875,352800
2025-05-28,155.91675648544185,156.58710455060864,155.02951252332593,155.1675262451172,364400
2025-05-29,155.59142705479934,156.4195093421778,154.59575775990618,156.08433532714844,232100
2025-05-30,155.9956163554189,156.52795067401013,154.31971618579314,156.15333557128906,335100
2025-06-02,155.30554827866962,156.813861590753,153.05788752213863,154.6844940185547,349600
2025-06-03,153.9648340363994,155.20697261718047,153.78739426335522,154.043701171875,397800
2025-06-04,154.27045472728327,154.30002802372996,148.15837939391508,148.2766876220703,831900
2025-06-05,149.43008223768163,151.1651140408049,146.9359674396561,150.32717895507812,482400
2025-06-06,152.1805223994589,152.28896284045817,150.05116971440813,151.13555908203125,264700
2025-06-09,150.544055582443,151.007375533086,149.21319719105352,149.44979858398438,388400
2025-06-10,150.00187555238352,150.82995798605992,148.72031080938757,150.3666229248047,323500
2025-06-11,150.82994254149838,151.4115707359019,149.4498052933599,149.7652587890625,380800
2025-06-12,149.26247896131767,152.42694148321849,149.26247896131767,152.16078186035156,337200
2025-06-13,150.829935873921,151.53972501083467,148.59212803830783,149.0160369873047,361200
2025-06-16,149.09491396311157,150.7313581523707,148.97660573756926,149.5385284423828,346200
2025-06-17,148.52313648415543,149.11461743433793,147.01483824975645,147.33029174804688,379700
2025-06-18,147.0049610386582,148.59212630654162,147.0049610386582,147.5767364501953,383200
2025-06-20,148.1583603569541,148.63156312403586,146.87681089594898,148.16822814941406,570500
2025-06-23,147.36973462159207,151.75661565197194,147.36973462159207,151.60873413085938,356500
2025-06-24,152.37767518899636,152.37767518899636,151.0073757093355,151.68759155273438,246600
2025-06-25,151.67773528253588,152.33823056724884,150.60319885109388,151.74673461914062,264700
2025-06-26,152.33824953068293,153.37336004754195,150.94824440925422,152.28895568847656,658200
2025-06-27,152.46640393058135,153.89583503865111,152.04249495674745,153.60995483398438,643100
2025-06-30,153.81695259670582,154.28028757107535,152.4170949235091,154.21127319335938,315500
2025-07-01,154.2112909513434,157.53350328229894,153.7479709659874,156.75469970703125,338300
2025-07-02,156.7645627082632,158.2531403852606,156.399800331021,158.04612731933594,293500
2025-07-03,158.3221432480809,159.07135840752164,157.55320754586447,158.75588989257812,235100
2025-07-07,158.66717993630388,160.0670377135844,158.27285931033134,158.6770477294922,313900
2025-07-08,158.61788810431491,160.2740678475626,157.58279268744894,157.7799530029297,342700
2025-07-09,157.66165312376677,157.74052026260657,155.8576218513925,157.46449279785156,252800
2025-07-10,156.93213815728353,158.08554170949643,156.08433532714844,156.08433532714844,361600
2025-07-11,156.31107345675375,156.31107345675375,154.40845469060778,155.66043090820312,292000
2025-07-14,154.91121519337966,156.6856880276844,154.46760074539523,155.32525634765625,276600
2025-07-15,155.50270521521296,155.7590120983507,151.8847603468732,151.97348022460938,254200
2025-07-16,151.73688195391455,153.40291433439845,151.37213464305125,152.78184509277344,261900
2025-07-17,152.5452588316346,154.1915706701163,152.31851019393284,153.81695556640625,397700
2025-07-18,154.62533756237983,154.98023213510643,152.72270372898328,154.16200256347656,243100
2025-07-21,154.20143682439874,154.44789098408017,153.03818041103906,153.2451934814453,205900
2025-07-22,153.8958333551263,157.09973737439896,153.0283099148117,156.9124298095703,449900
2025-07-23,157.7996815698846,159.55443403890214,156.88286424485372,159.36712646484375,450500
2025-07-24,159.11996916058192,162.4020082574344,157.96333091025235,159.9701385498047,431900
2025-07-25,160.19750774667867,161.22561221674488,158.94202169024894,159.14962768554688,296300
2025-07-28,159.35722424092228,160.12830639187274,156.35198291982778,156.88580322265625,308500
2025-07-29,157.23180681567746,157.7755224517839,155.4227248360997,157.0044403076172,388200
2025-07-30,156.98465159805863,157.11315522177728,153.14900170497543,154.99761962890625,580700
2025-07-31,153.99917438750097,155.55123391765005,153.4060273513415,155.3436279296875,679700
2025-08-01,155.17559628438335,156.31244400829624,139.47712391688526,139.73416137695312,1012300
2025-08-04,141.4838983520282,141.4838983520282,135.51295211602235,137.53952026367188,839000
2025-08-05,137.7471203907678,139.4573546226765,136.1159885271504,138.6170654296875,540800
2025-08-06,138.7060232610084,139.15087600319592,135.9775800358165,136.9562530517578,515300
2025-08-07,138.2018575966745,139.87254051260254,137.32203237332467,138.88397216796875,564000
2025-08-08,139.08169477744622,140.42614844511056,138.97295164681316,139.14100646972656,428700
2025-08-11,139.71437362843554,140.00105182700324,137.60871811175764,138.27105712890625,349500
2025-08-12,138.61705933663222,139.47710899953265,137.6383712108668,137.88551330566406,286100
2025-08-13,138.093132926373,139.82312776063122,137.6581603831194,139.813232421875,729900
2025-08-14,138.58740244327777,138.58740244327777,134.8802710493718,136.758544921875,875800
2025-08-15,136.7783310639517,137.36158282800585,136.2939270940797,137.13421630859375,770500
2025-08-18,137.30227391230105,137.97450831438334,135.77988510875218,136.31370544433594,529500
2025-08-19,136.68934510491053,138.91362381311117,136.68934510491053,137.99424743652344,333100
2025-08-20,138.3105996295714,139.6352775807112,137.6680211600025,139.56607055664062,519200
2025-08-21,139.02237682659523,140.27784781496257,138.6368357597722,139.03225708007812,270400
2025-08-22,139.6451775909557,141.69152157825582,139.57598564145147,139.813232421875,356500
2025-08-25,139.35848463440877,139.99116778923627,137.3714676366746,137.964599609375,245800
2025-08-26,137.4802014096915,138.5577372418402,136.43230633558758,138.11288452148438,442900
2025-08-27,137.49997281529963,138.96306488334525,137.44066112579765,137.84597778320312,729100
2025-08-28,138.56762766903606,138.56762766903606,135.8292890396428,137.30226135253906,320800
2025-08-29,137.57906986016718,138.27106476072905,136.76845157218256,137.6779327392578,370700
2025-09-02,135.84906508939116,136.94637659553402,134.6133546133004,134.85061645507812,310600
2025-09-03,134.5243943101381,134.62324210292473,132.9031426817368,133.67422485351562,382300
2025-09-04,134.79130216014153,136.8969425133348,133.49626493537275,136.87718200683594,401800
2025-09-05,137.43077574465525,139.21020178510477,136.0566663464884,137.03533935546875,440800
2025-09-08,137.00570288208334,138.39958806786993,136.10610193939624,136.71902465820312,616100
2025-09-09,136.67946624256135,137.88552093868483,133.55560145550504,135.48330688476562,637100
2025-09-10,134.57382046722492,135.88861824297987,133.30845412810189,134.69244384765625,685100
2025-09-11,135.18672513791338,136.6992335433112,134.31678014184178,135.53273010253906,477500
2025-09-12,135.05819131395336,135.48328351106477,133.674201778984,133.68408203125,261300
2025-09-15,134.41564821558472,134.6133588811563,133.09097016346266,133.30845642089844,298000
2025-09-16,133.2491099534109,133.871912788061,132.56701052064494,133.66432189941406,474800
2025-09-17,133.8719349467548,135.50308190645822,132.6560000017811,133.11073303222656,377400
2025-09-18,133.35786944137865,133.9608967611341,132.53737095397892,132.9624481201172,254800
2025-09-19,133.12062346030297,133.5555959668464,131.81570594067267,132.90313720703125,877200
2025-09-22,132.58677892796058,133.39741219498762,131.1533578735173,131.20278930664062,402100
2025-09-23,131.48947627590215,132.41873297707602,130.46137178622766,130.51080322265625,319700
2025-09-24,130.49103409799787,131.7860563410793,129.83857530726212,129.9967498779297,353300
2025-09-25,129.99674318999885,131.0050871706818,128.7808082948073,129.32452392578125,388700
2025-09-26,129.82869272268246,130.9161089366979,129.46292723339218,130.7777099609375,274400
2025-09-29,130.88645346701895,131.16325141933544,129.85834894189443,130.75794982910156,540600
2025-09-30,130.20434429084327,132.23089734514227,130.20434429084327,132.13204956054688,310400
2025-10-01,131.80581420869075,132.82403835835518,130.7974703117304,132.60655212402344,310100
2025-10-02,132.1320554290962,132.85370613455356,131.44006056877018,131.65753173828125,398500
2025-10-03,130.95565622479634,132.0529677443783,130.91610504183745,131.69708251953125,402000
2025-10-06,131.37085466398543,131.67730845586786,129.90777764901935,130.37240600585938,447100
2025-10-07,130.59976556964224,130.99518687665005,128.32605534345748,129.09713745117188,438800
2025-10-08,129.6803765561391,130.5008900185806,128.77089557092012,130.10546875,361300
2025-10-09,130.19444872342635,131.32141603944422,128.71159619791044,129.11691284179688,554200
2025-10-10,129.4431381350315,130.5008983927555,128.40513838295638,129.43324279785156,426000
2025-10-13,129.49258620457584,130.8370398948493,128.67207258406597,128.73138427734375,311400
2025-10-14,128.55343940983934,129.5617834901798,127.56487092285874,128.31619262695312,337400
2025-10-15,128.3161756767913,128.89942738681822,126.39835065189028,126.63561248779297,438300
2025-10-16,126.97171654630597,128.0195965446806,126.38845731965263,127.68348693847656,352700
2025-10-17,127.68349986264782,128.61275658450555,127.37704606806854,127.86143493652344,339700
2025-10-20,128.12834444492697,128.6028530293001,126.55652438869629,128.51388549804688,240500
2025-10-21,129.11692867987182,130.263671727181,127.64395622680965,129.077392578125,311600
2025-10-22,129.1564481138655,130.59976453326686,128.49410913348765,128.5731964111328,357500
2025-10-23,128.73197123448563,130.50805690169727,128.65259098954968,129.75396728515625,378600
2025-10-24,129.73411268037526,129.87302431778892,127.54127703952456,127.87864685058594,489300
2025-10-27,128.1366224648553,128.89071205489756,127.45198112404552,127.7794189453125,521700
2025-10-28,127.74964944095181,128.10685294985234,126.47959588491281,127.10470581054688,413500
2025-10-29,126.29107194406481,126.50936382227088,122.46106236313027,123.34414672851562,651100
2025-10-30,123.07624728804052,124.54474389238906,122.08401698830151,123.39376068115234,702600
2025-10-31,114.39423553008093,117.18240033192052,102.42794018569283,115.108642578125,2758200
2025-11-03,115.18801418737364,115.18801418737364,107.44862223530946,112.24109649658203,1661000
2025-11-04,113.47145606328911,115.0987131260131,111.65567282386979,113.29285430908203,1029100
2025-11-05,113.44168707726934,115.13839990799084,111.8938027289756,114.67205047607422,896900
2025-11-06,114.12632587945619,116.05125508565277,112.91581127124762,115.24755096435547,880300
2025-11-07,115.32692576494694,116.01155949259733,113.7988902652183,115.31700134277344,697200
2025-11-10,115.08879219606841,115.86273063108003,113.11425598749823,115.47576141357422,514000
2025-11-11,116.05125494853503,118.58144524090463,116.05125494853503,117.35107421875,484800
2025-11-12,117.42052991643766,118.74019803055835,116.99387815530137,117.24193572998047,547500
2025-11-13,117.3808436819808,120.93302228660532,117.3808436819808,119.26607513427734,679400
2025-11-14,118.8394216459119,119.75227929014665,117.47014653473461,117.68843841552734,521200
2025-11-17,117.56937122538191,118.56160156840677,116.65652112662708,118.41276550292969,820200
2025-11-18,118.73028226930452,119.1767828797841,117.14270772067383,118.38299560546875,817400
2025-11-19,118.5814455351289,118.5814455351289,116.79542796312874,117.08317565917969,598900
2025-11-20,117.08318073043249,118.68067219177061,116.45807833821543,117.65867614746094,507400
2025-11-21,117.21216086173891,121.29022793939164,117.21216086173891,120.57582092285156,509100
2025-11-24,119.91103668470342,121.44899676039621,119.50422617630296,120.5262222290039,740000
2025-11-25,121.45891525209124,123.11593804438662,121.45891525209124,122.48091125488281,543600
2025-11-26,122.06416725085363,123.55251268958358,122.06416725085363,122.84803009033203,538000
2025-11-28,122.66943052847252,125.10039933060551,122.66943052847252,123.78073120117188,315700
2025-12-01,123.90971816318398,123.9890984046682,122.07409360703122,122.32215118408203,536800
2025-12-02,122.80834273936739,122.8976474041654,119.86142506313116,120.65520477294922,325400
2025-12-03,120.50636459439258,123.29453683156571,120.46668204485655,121.11162567138672,543100
2025-12-04,121.25053931737644,123.11593712141129,120.9826404679227,121.07193756103516,708000
2025-12-05,121.0421717426921,122.55036603254122,119.6828210814482,120.96279907226562,537000
2025-12-08,119.98048683677486,121.15131890116776,118.37307858523162,119.13709259033203,496600
2025-12-09,118.67074319979267,118.91880077653559,114.46368881786525,114.82089233398438,640300
2025-12-10,115.2673979458709,116.88473826129054,114.23547747342825,116.25962829589844,734700
2025-12-11,117.04347933154511,117.74796190032998,116.24969967395411,117.09309387207031,389700
2025-12-12,117.5991381446397,120.69489957224027,116.73590258212603,120.5262222290039,656400
2025-12-15,120.53613763713133,121.508519071394,119.54390735802136,121.37953186035156,588600
2025-12-16,121.71688801826957,122.88772006482098,118.59136108661724,121.87564849853516,644800
2025-12-17,121.16124681536517,123.63189822994175,119.14702044648554,122.66943359375,567300
2025-12-18,122.70911937736454,123.15562755440962,121.08186229106413,121.66728210449219,457100
2025-12-19,122.38168448192317,123.36399795279324,120.31785116207733,120.44683837890625,1300400
2025-12-22,120.44683702770696,122.73888662712453,120.1293236305144,121.78634643554688,527800
2025-12-23,121.91534038479175,122.07409329724082,120.37738038293297,121.2406234741211,311700
2025-12-24,121.57798039532113,122.21300719710743,120.81396637664959,121.79627227783203,198000
2025-12-26,121.41922894554897,122.52060522415447,120.77427771310445,122.29238891601562,306000
2025-12-29,122.33208105068077,123.34415267923492,121.36961639767443,122.25270080566406,400200
2025-12-30,121.8458854019756,123.3342308707125,121.46883303835433,121.78634643554688,289800
2025-12-31,120.57582164498164,122.37176361957204,120.40714431232067,121.01240539550781,314300
2026-01-02,120.79411858954116,122.04433092844077,119.84157837851366,121.58790588378906,295100
2026-01-05,120.81396333104647,123.61205247154165,120.81396333104647,122.04432678222656,435700
2026-01-06,121.2703893294616,121.89549169761267,119.17678277613919,119.62328338623047,777200
2026-01-07,119.73243542753909,121.00248907397176,116.6962129559037,119.50422668457031,478500
2026-01-08,118.98826090452039,122.41146012961788,118.59136725333443,121.48868560791016,330000
2026-01-09,121.13148146291526,123.9990265337246,120.51629592819934,122.88772583007812,429100
2026-01-12,123.0365583546262,124.32646078477775,122.02448676997972,124.15777587890625,477300
2026-01-13,124.07840343065625,124.46537264637453,121.58790323017156,122.54044342041016,351900
2026-01-14,123.14570153346037,126.1720069370604,123.14570153346037,125.86441040039062,611700
2026-01-15,126.15215809530929,126.23153833510459,123.5525120178855,124.13793182373047,381000
2026-01-16,123.03655288156622,124.22722617172847,122.28245576040153,123.74103546142578,363400
2026-01-20,123.92956647771405,124.55466884396232,122.4809111423571,122.85795593261719,275100
2026-01-21,123.34415338455338,124.64398030125511,122.93734287422093,124.0387191772461,421000
2026-01-22,124.07840219082979,125.42783600604635,123.09608874217598,123.5029067993164,369700
2026-01-23,123.37391303470616,125.29884225734148,122.90757114819523,125.0210189819336,429500
2026-01-26,125.43775721229031,126.00332820078921,124.12801347207618,125.36830139160156,315400
2026-01-27,123.9791728132312,125.3186897727715,123.205234391347,123.77080535888672,303100
2026-01-28,123.23499911768216,124.09824219611878,122.29238336925172,122.73888397216797,347800
2026-01-29,123.32430960117436,124.30661551602421,121.63751348474041,122.88772583007812,386000
2026-01-30,121.9550286222896,124.03871071803064,121.70697104969861,123.97917175292969,512700
2026-02-02,123.23499750184895,124.93171793896286,123.23499750184895,123.860107421875,489100
2026-02-03,122.94725978548665,126.93602225021577,122.72896790883826,123.66165924072266,658700
2026-02-04,125.21552867481128,129.90700134775133,124.20949930267037,128.7216796875,589400
2026-02-05,127.16782066467043,128.5722782146923,121.48028130551128,123.49234008789062,2144200
2026-02-06,127.02836268310486,135.45509216979158,127.02836268310486,133.7816925048828,1045700
2026-02-09,133.05457384055362,139.02101804829903,132.72587004959905,137.9253387451172,1043400
2026-02-10,137.26793457923543,140.37565748193367,137.26793457923543,139.61865234375,622100
2026-02-11,138.48313331396238,139.99715874839507,138.05483198642824,139.4592742919922,584300
2026-02-12,139.60869173387061,141.44145054391814,138.84171623230802,139.95730590820312,572700
2026-02-13,139.9573151020267,142.3677944950846,139.85771755943315,142.01918029785156,471900
2026-02-17,138.71222079286514,143.055071512211,138.71222079286514,141.0928192138672,614700
2026-02-18,140.9135352437976,142.54708376856578,140.2860084572567,141.1625518798828,582000
2026-02-19,141.0928230678908,142.7562676088946,140.4752666602554,142.59689331054688,525500
2026-02-20,142.55704525117903,144.56910401516237,141.44145553591065,144.47946166992188,664500
2026-02-23,142.9255958993581,145.6647789342487,142.5670113304762,145.14682006835938,513500
2026-02-24,145.49544486452967,146.33213709933392,143.28417595914058,143.57302856445312,429800
2026-02-25,141.8498473766502,143.0949306198296,139.87762457633954,142.1187744140625,348900
2026-02-26,142.95547535989397,143.35389589996325,140.44538340090327,141.23226928710938,331300
2026-02-27,140.97329664666827,143.44353741820976,140.44538259466083,143.1447296142578,344600
2026-03-02,142.43751420451355,142.78614357053576,141.06293752550724,142.1088104248047,335000
2026-03-03,140.08679425249235,140.76412738697488,136.38142559574294,139.2102508544922,347300
2026-03-04,138.79191754238275,138.9612470419286,135.47501391314069,136.50096130371094,389000
2026-03-05,135.46505150535157,135.80371048641027,133.88130933030985,134.20004272460938,452300
2026-03-06,133.47291651624107,133.47291651624107,130.48471689274314,131.5604705810547,398500
2026-03-09,130.45484354440993,133.45299853256722,127.02837201579013,133.22390747070312,545700
2026-03-10,132.82547764917305,133.60240832546756,130.88313575966777,131.6102752685547,503100
2026-03-11,131.2815812945587,132.75575561111177,129.5284943463408,131.50071716308594,563800
2026-03-12,130.7536581494707,132.26766833775483,128.13399830193273,128.35313415527344,620600
2026-03-13,129.6380511924889,129.6380511924889,126.55025410703881,128.14395141601562,660600
2026-03-16,128.97069022910543,130.8931065380538,125.50438295551326,128.54238891601562,370700
2026-03-17,129.45876833048925,130.50464122844355,127.73557748644285,128.99061584472656,276700
2026-03-18,123.89075860801685,126.08210964583039,120.94240244020646,123.73139190673828,910500
2026-03-19,122.52615308632394,124.32903117833895,120.97228404186016,123.48237609863281,518500
2026-03-20,123.77123411184346,123.77123411184346,119.83676660084556,120.58381652832031,1481500
2026-03-23,123.02418368013113,125.84304628604973,122.50622481021608,123.65170288085938,455200
2026-03-24,122.67556308818467,124.72745780194329,122.38670286935901,123.66166687011719,405000
2026-03-25,124.94659356774676,126.07214606142944,123.22339504970952,125.3250961303711,337200
2026-03-26,124.72746089618293,126.83911722505529,123.6317891558115,124.19954681396484,442100
2026-03-27,123.45249678230496,123.72143142045898,121.28107129127055,121.51016235351562,381400
2026-03-30,122.07791483255923,123.45249154525831,120.62365857080745,122.87477111816406,562000
2026-03-31,123.90072145898677,126.46061226934556,123.1038651540704,125.52430725097656,557800
2026-04-01,126.83910993884153,128.13399948450484,125.83308820196113,126.25143432617188,380200
2026-04-02,124.64777023751822,126.5900970135599,123.76127159620845,125.51435089111328,297500
2026-04-06,124.0999305830527,125.6936431780852,124.0999305830527,125.51435089111328,461100
2026-04-07,124.82706080661809,126.6697824199569,124.30910953992999,125.11592102050781,376900
2026-04-08,130.86323514521675,132.1481543754263,127.64592907491694,131.50071716308594,645200
2026-04-09,130.70386349661462,131.91906599267529,126.83912013545304,130.88314819335938,424100
2026-04-10,131.7298075164679,132.178034445579,130.3353203595067,130.98275756835938,407400
2026-04-13,130.28551770076956,131.89914077103793,127.07818194963497,131.59036254882812,396300
2026-04-14,130.71381054193466,132.197955189354,130.45483870763653,130.4946746826172,315500
2026-04-15,130.29547082253353,130.51460669263554,128.0941721257409,129.14002990722656,407100
2026-04-16,126.40084558822308,129.81735412824597,126.40084558822308,127.78536987304688,393800
2026-04-17,129.14002424182965,131.7796097617975,129.14002424182965,130.11618041992188,401100
2026-04-20,130.05641512792803,131.47082778766443,129.1499909308814,130.405029296875,403600
2026-04-21,130.18589466096142,131.72980084865796,126.1916732788086,126.1916732788086,310200
2026-04-22,126.77935427393615,126.77935427393615,122.47634691200882,124.06009674072266,458900
2026-04-23,124.88682675562279,126.93872910578784,123.95052932532681,124.44856262207031,440800
2026-04-24,123.9206456254592,123.9206456254592,122.08787918491913,123.5919418334961,440900
2026-04-27,123.55209914216728,125.73348737793874,123.05406585359005,124.23938751220703,359700
2026-04-28,125.62392082821759,126.15183490401432,123.23335949687649,125.2752914428711,354300
2026-04-29,124.64776713863216,125.4047798425139,122.30701227202618,122.41658020019531,448400
2026-04-30,122.94449532386469,125.58407321741664,121.40058912214994,123.19351196289062,764800
2026-05-01,126.70962950793603,127.97463072857443,117.4362520229959,118.55184173583984,989400
2026-05-04,118.21317963909578,121.27110367417347,116.9979772200526,120.12562561035156,739600
2026-05-05,120.42445055667139,123.22339520339091,120.34476340674007,121.55000305175781,628600
2026-05-06,123.18000030517578,126.38999938964844,121.66999816894531,122.62999725341797,917000
2026-05-07,122.94000244140625,126.47000122070312,122.56999969482422,125.11000061035156,749700
2026-05-08,125.2300033569336,125.86000061035156,120.38999938964844,120.98999786376953,794900
2026-05-11,121.22000122070312,121.22000122070312,119.44000244140625,119.95999908447266,706100
2026-05-12,120.44999694824219,120.86000061035156,117.13999938964844,118.05000305175781,696600
2026-05-13,118.0,118.75,116.43000030517578,117.87999725341797,679500
2026-05-14,118.7300033569336,120.16000366210938,117.04000091552734,117.98999786376953,531000
2026-05-15,117.91000366210938,117.91999816894531,114.47000122070312,114.66999816894531,447000
2026-05-18,115.5999984741211,117.31999969482422,115.16999816894531,115.80999755859375,433100
2026-05-19,115.88999938964844,116.04000091552734,112.44999694824219,113.61000061035156,575800
2026-05-20,114.06999969482422,115.44999694824219,111.55000305175781,115.26000213623047,562600
2026-05-21,116.5,116.5,112.7699966430664,115.51000213623047,345600
2026-05-22,115.80000305175781,116.80000305175781,114.70999908447266,116.2300033569336,405800
2026-05-26,116.19999694824219,116.97000122070312,115.37000274658203,116.37999725341797,344500
2026-05-27,116.94000244140625,118.11000061035156,114.7300033569336,115.30000305175781,464000
2026-05-28,114.80999755859375,116.33999633789062,113.3499984741211,115.98999786376953,510100
2026-05-29,115.05999755859375,117.26000213623047,113.75,115.8499984741211,559600
2026-06-01,114.69000244140625,115.12999725341797,112.02999877929688,112.37999725341797,706800
2026-06-02,111.94999694824219,113.05000305175781,111.23999786376953,112.18000030517578,452400
2026-06-03,111.69000244140625,114.0199966430664,111.69000244140625,112.52999877929688,372600
2026-06-04,114.94999694824219,115.76000213623047,111.54000091552734,112.55000305175781,337600
2026-06-05,113.08999633789062,114.58999633789062,111.9800033569336,113.36000061035156,466300
2026-06-08,112.26000213623047,112.63999938964844,110.94999694824219,111.94000244140625,422200
2026-06-09,113.27999877929688,116.1500015258789,112.66999816894531,115.9000015258789,444400
2026-06-10,116.1500015258789,116.55000305175781,113.37000274658203,115.88999938964844,83636
