Date,Open,High,Low,Close,Volume
2023-06-13,111.31381287819178,111.96797783650442,110.3999092970995,110.83280944824219,340600
2023-06-14,111.21759857876864,111.55429946617004,110.00546804459474,110.78469848632812,225200
2023-06-15,110.63078951378702,111.97760059316519,110.58268623470819,111.64089965820312,362600
2023-06-16,111.25607896601144,112.756807105015,110.97709613564022,112.69908905029297,975300
2023-06-20,112.43935851416155,112.50669870039683,111.31381225585938,111.31381225585938,297000
2023-06-21,110.76546213036721,110.88090558835343,109.11080926354511,109.30321502685547,317800
2023-06-22,109.62066662197516,109.72648795201908,108.08145728433067,109.71687316894531,266200
2023-06-23,108.61057596542958,109.40904342074265,107.8121085101165,108.5432357788086,366000
2023-06-26,108.76449527106796,110.0247292720477,108.76449527106796,109.2936019897461,142300
2023-06-27,109.50524179545765,110.45762652448515,108.92803915179037,110.3614273071289,218300
2023-06-28,110.44800572673412,110.44800572673412,108.20653531126023,109.20701599121094,204800
2023-06-29,109.12045853251651,110.97713240805265,108.27389498193929,110.4191665649414,225900
2023-06-30,110.84242323774862,111.86214808391983,110.47685596117455,111.4581069946289,279800
2023-07-03,111.02521667564719,112.574040987969,111.02521667564719,112.1122817993164,85700
2023-07-05,111.22723412051471,111.22723412051471,108.4758939551834,108.64905548095703,384200
2023-07-06,107.98527198550394,108.68754023538193,107.38882507929975,108.19691467285156,277700
2023-07-07,108.37007152236167,110.94825013592458,108.31234612133264,109.46675872802734,333400
2023-07-10,109.00497932400836,110.91937798529895,108.71638171111815,110.12091064453125,248000
2023-07-11,109.96699400151331,111.1695024910392,109.06271260826982,111.12140655517578,226700
2023-07-12,112.15075804421535,113.08390584398397,111.37152752074805,112.42974090576172,199400
2023-07-13,112.41049037080688,112.91073800474413,112.13150752486675,112.56441497802734,190200
2023-07-14,113.21857212434628,114.32487396996395,112.266180196348,113.8534927368164,271600
2023-07-17,113.90161636491591,114.99830362389025,112.70872988558996,114.72894287109375,234200
2023-07-18,114.48843069197581,115.79676051992628,114.19020359473971,114.55577087402344,189100
2023-07-19,114.23830222496996,114.87323020662586,113.81501690386602,114.58462524414062,247200
2023-07-20,115.22917239852205,115.65245773575094,114.34412791116105,114.79627227783203,175800
2023-07-21,115.10411944391612,115.48892364638458,114.35375528584399,115.28689575195312,184300
2023-07-24,115.46005155976455,115.912195924815,114.19982501511453,115.18107604980469,163400
2023-07-25,115.13297461841519,116.51826676509069,114.76741467505558,115.97953796386719,250700
2023-07-26,115.98918577455338,116.22085318432259,114.69569406047908,115.78646850585938,306900
2023-07-27,115.89266517527358,116.58767485454675,114.61848321813113,115.00460052490234,407800
2023-07-28,118.23831140039208,122.58211424618462,117.6494842032409,119.48353576660156,513000
2023-07-31,119.23255838755149,119.62833062613754,116.63593458410192,117.24406433105469,746500
2023-08-01,117.0316964041143,118.24796323085536,116.55870661327171,118.19004821777344,365300
2023-08-02,117.22477436702148,118.08388154374163,115.81545239886735,117.99700164794922,329200
2023-08-03,117.30198526491023,118.46999212502719,116.52975802792562,116.61663055419922,195900
2023-08-04,116.43324261303452,117.8908247118192,116.29810264843958,116.45254516601562,116500
2023-08-07,116.53941911210748,117.43713875366868,116.32705421728596,117.0799789428711,140300
2023-08-08,115.91197623422308,117.18615820393119,115.55481643313685,116.91587829589844,270100
2023-08-09,116.91589486956572,119.10709931851467,116.33671513930675,117.60124969482422,287500
2023-08-10,117.5722832458952,119.28084269949765,117.5722832458952,117.98735809326172,216000
2023-08-11,117.29233942455933,118.94298372960004,117.29233942455933,118.35415649414062,226500
2023-08-14,117.79428541805788,118.72096252441406,117.35990805602609,118.72096252441406,145700
2023-08-15,118.37346063529799,118.6630504602438,117.74602828887402,117.85220336914062,249000
2023-08-16,117.5046964278356,118.88506073505322,117.27302164070392,117.3212890625,291100
2023-08-17,117.72672381164278,118.4024309795417,117.3985288684787,117.41783142089844,186600
2023-08-18,117.16685235814124,119.1360440823842,117.16685235814124,119.01055908203125,443100
2023-08-21,118.87540601943746,120.13993293565986,118.78852613294282,119.48353576660156,358800
2023-08-22,119.57042216370789,121.34655144459086,118.49895014757142,118.6823501586914,429600
2023-08-23,118.7885388380475,119.27118365031271,118.0645716196497,119.10708618164062,305000
2023-08-24,119.20360046165038,121.10522198957945,118.33483842292966,120.76737213134766,278400
2023-08-25,121.21142292068212,123.24818470268252,120.64190555341672,123.11304473876953,493000
2023-08-28,123.1998997920223,125.08221879013223,123.1998997920223,124.91812133789062,331900
2023-08-29,125.29457977895636,127.37960862951105,124.90845514228948,127.24446868896484,472400
2023-08-30,127.7753889970742,128.63449621483008,127.12864668520417,128.27734375,298900
2023-08-31,128.65379569559605,129.0881730663421,127.64990100033508,127.95878601074219,305800
2023-09-01,128.48005469445837,129.14609216174586,127.92018494570092,127.94914245605469,252000
2023-09-05,127.1093240353851,127.3989138534175,122.93928073482842,123.1419906616211,325300
2023-09-06,123.3543672903448,123.56672483060133,121.81955289196907,122.02227020263672,291100
2023-09-07,121.90643244991844,122.75588470229167,120.79634786431747,121.00871276855469,328600
2023-09-08,121.15348865161297,122.27322065538502,120.77702633129032,120.9604263305664,238800
2023-09-11,122.58212288434471,123.48949745495977,122.02226051962224,122.60143280029297,333500
2023-09-12,121.73267217607768,122.87171419988563,121.06661999469735,122.13809204101562,258000
2023-09-13,121.41413652697216,122.19601882240913,120.76739419952243,121.01837158203125,279300
2023-09-14,121.63614783178475,122.88137233304762,121.63614783178475,122.36011505126953,217900
2023-09-15,122.09948164304562,122.78483638765171,120.82529964265854,121.55892181396484,589200
2023-09-18,121.97399375623068,121.97399375623068,120.58397438341775,121.27898406982422,175100
2023-09-19,121.32724105826763,121.32724105826763,119.75381444117978,120.9604263305664,218600
2023-09-20,121.47204622557736,121.72302359708121,120.2364766498286,120.30404663085938,206200
2023-09-21,120.0144687411218,120.03377129447881,117.94874939685624,117.97770690917969,335700
2023-09-22,118.08388014980025,118.63409493473912,117.87151525656503,118.4217300415039,341200
2023-09-25,117.755680884051,119.8214001203192,117.25373351267645,119.73452758789062,258800
2023-09-26,119.24222158838647,119.9082737605531,118.95263913082606,119.3097915649414,547000
2023-09-27,119.7345215441092,120.130286446155,118.60513449209238,119.2325668334961,362400
2023-09-28,119.56076662731212,121.2789808821135,118.98159435872148,121.11488342285156,219300
2023-09-29,122.09947311502151,122.42767539159397,120.45848382588365,120.6998062133789,330900
2023-10-02,120.20752551600654,121.12455515244764,119.68626819272524,120.70948028564453,244100
2023-10-03,119.71521017927378,120.96043461818644,118.23831830380705,118.60513305664062,236300
2023-10-04,119.26152579086992,120.33299777103545,118.0838713719799,119.91792297363281,208200
2023-10-05,119.65729213678843,120.5936241817703,118.53756008460046,119.45458221435547,466700
2023-10-06,119.31945619225938,122.29255013075931,119.10709128742714,122.02227020263672,491700
2023-10-09,121.45273985524017,122.80414679795139,121.32725485572051,122.53386688232422,275700
2023-10-10,122.82344297911708,124.14589234292649,122.11878571629325,122.14774322509766,322000
2023-10-11,123.10338592529297,123.26748339568097,122.25393369807082,123.10338592529297,212900
2023-10-12,122.8041363601095,122.9778887717552,120.71910742036091,121.06661224365234,189300
2023-10-13,121.62649168985304,122.27323396546767,121.04731939281642,121.5975341796875,324900
2023-10-16,122.9392835826247,123.00685355978747,121.79058660628245,122.31184387207031,275200
2023-10-17,121.63614547446593,123.88526466233326,121.63614547446593,123.05512237548828,314400
2023-10-18,122.46629731522039,123.23852459609822,121.89677260716917,122.3794174194336,287300
2023-10-19,121.70370985945581,123.04546176273765,121.0376577043825,121.36585998535156,443900
2023-10-20,121.55893076983776,122.08984304435381,117.69777201575995,117.97770690917969,446500
2023-10-23,117.4950492127488,118.88506856883411,117.00274946337274,117.28268432617188,379000
2023-10-24,117.89080036822205,119.47387451050561,117.49503551493825,119.05879974365234,312100
2023-10-25,118.57454951694265,119.88203510477616,118.0515538039819,118.51644134521484,431300
2023-10-26,117.44141263972791,121.44135246402949,117.44141263972791,119.54307556152344,576000
2023-10-27,119.58182197378237,119.94016561837014,116.5697580258713,117.354248046875,364000
2023-10-30,118.08061901965189,118.46802410900513,117.04431465438604,118.32274627685547,283100
2023-10-31,118.65204893878834,119.02007972748278,117.99346247171451,118.41960144042969,422900
2023-11-01,118.2646378957484,119.54306951601366,117.78038338217613,119.0588150024414,360500
2023-11-02,119.82394517295023,120.37599505580931,119.10725051904181,119.6883544921875,384300
2023-11-03,120.51158420536397,122.003089063941,120.51158420536397,121.4026107788086,278000
2023-11-06,121.32512525461992,121.77064591937194,120.82150380061947,121.24765014648438,173500
2023-11-07,120.69560295651807,121.05394658334917,120.25976944156056,120.6278076171875,205000
2023-11-08,120.94740785382807,121.53819896716833,120.49221480588676,121.17985534667969,175800
2023-11-09,121.73191177707123,121.73191177707123,120.16292436681583,120.47284698486328,118600
2023-11-10,120.32755920226418,121.82875114673432,119.98858252132696,121.76095581054688,195600
2023-11-13,121.44133963428692,121.52850928428066,120.45346373222606,120.6084213256836,183100
2023-11-14,121.98371434677951,123.83357021629412,121.36386913343608,123.82388305664062,267400
2023-11-15,123.79483004673568,124.74397219433762,123.33962959784179,123.68829345703125,388600
2023-11-16,123.63018225230408,124.56962982804686,122.84568489375135,123.53333282470703,217000
2023-11-17,124.5115175822605,125.01514641193484,123.59143696643567,123.90135955810547,162700
2023-11-20,123.43647327736079,123.63017951740747,122.44859731510405,123.3105697631836,213900
2023-11-21,123.44614744361681,124.25969878790941,123.19433305262902,123.8819808959961,160600
2023-11-22,124.40497858710981,125.13136033998698,123.3493073197142,124.52120971679688,174800
2023-11-24,124.90861400007235,124.90861400007235,124.06601585130784,124.48246765136719,65900
2023-11-27,123.79481793981684,124.25970550298354,122.85536304382997,123.00064086914062,367500
2023-11-28,123.00065360969789,123.0103407694919,121.53820282459247,121.65442657470703,218000
2023-11-29,121.68348364866526,122.4195526391636,120.98615590915504,121.42198944091797,331800
2023-11-30,121.49945624960122,123.12655173420484,120.879611054432,122.89411163330078,301000
2023-12-01,122.43891423680424,124.49214872577235,122.43891423680424,124.0660171508789,218300
2023-12-04,123.43647582266271,124.8214514528582,122.89411311762335,124.37593078613281,192000
2023-12-05,124.21128583306977,124.637432180179,121.91591672132816,122.02245330810547,178000
2023-12-06,122.40986986130585,123.29121672727666,121.91592812994705,122.3905029296875,179500
2023-12-07,122.2645942067458,123.10719983546575,122.02246691690956,122.50672149658203,254000
2023-12-08,122.38080197837209,123.48490168465685,121.66410736304317,123.3105697631836,265800
2023-12-11,123.25246079430477,123.65923281208454,122.36142687408662,123.55269622802734,338000
2023-12-12,123.6301827914491,124.06601630124297,122.69072782247173,123.46553802490234,210300
2023-12-13,123.1749792246949,124.92798560063507,123.1749792246949,124.54057312011719,425000
2023-12-14,125.01514938630581,125.91585570519116,122.88442505238625,123.38805389404297,412900
2023-12-15,123.15563566705762,124.53091698277079,122.00310733349319,122.0127944946289,713000
2023-12-18,122.7197829699494,123.20403750335895,121.91591867109649,123.04907989501953,240500
2023-12-19,123.68829501618633,124.0950744497936,122.06119944917108,122.2549057006836,659100
2023-12-20,122.05151063829354,122.94254460492192,121.50914791967111,121.61568450927734,346400
2023-12-21,122.26458682357395,122.26458682357395,120.91835976450997,121.94498443603516,421900
2023-12-22,122.41954341082864,123.03938860163689,122.14836206349223,122.29363250732422,312200
2023-12-26,122.16772810971344,122.87474295084685,121.63504518905556,121.86749267578125,274700
2023-12-27,122.1483674460001,122.48734414510773,121.09268870976447,121.3348159790039,283100
2023-12-28,121.04425844496743,121.8384355318541,120.48252144984001,121.25732421875,343600
2023-12-29,121.24765553578665,121.4123003079572,119.66898098751031,119.72709655761719,313500
2024-01-02,118.74889703904802,120.19197347679686,118.43897443384415,119.01039123535156,313100
2024-01-03,121.20892170427999,123.25247660366368,119.27190340261875,121.41230773925781,531700
2024-01-04,121.23796483552567,121.95465947338585,120.22102736343857,120.30819702148438,353300
2024-01-05,119.88204634088143,120.45347050993072,119.11692332182685,120.288818359375,423000
2024-01-08,120.16293877854928,121.21861767200804,118.51647605816717,120.43412017822266,352400
2024-01-09,119.81425753742421,120.71497127842206,119.09756288636142,120.70528411865234,250300
2024-01-10,120.54063528985738,121.47040308972274,120.317882346619,121.24765014648438,279600
2024-01-11,121.43166549949392,122.97159877535763,121.00552652992823,122.84568786621094,323100
2024-01-12,123.86261539265269,123.94009788602922,121.95465148079455,122.44859313964844,231700
2024-01-16,121.91591381064313,122.82631466168198,121.55757019925443,122.8166275024414,257500
2024-01-17,121.97402717748967,123.26213854603338,121.92559877129759,122.70040893554688,336900
2024-01-18,123.3105562366886,125.9158402245777,122.33236015188382,125.0732421875,444200
2024-01-19,125.62531319767785,127.32020400576255,124.49214462396206,126.68098449707031,418000
2024-01-22,126.77782467019193,127.65917142422897,126.44853515053244,127.05870056152344,266200
2024-01-23,127.64949663077542,127.69792503926627,126.2257871351414,127.67855072021484,217800
2024-01-24,127.95939664057987,128.12404138726603,126.42915073939402,126.6615982055664,294400
2024-01-25,127.8722572161754,128.21124131759007,126.27422308842341,127.1168212890625,332300
2024-01-26,127.53327613099292,128.4146229928944,127.2620947547581,127.55265045166016,219900
2024-01-29,126.92311919612955,128.41461669224083,126.3807564702709,128.0853271484375,187800
2024-01-30,127.87225396638219,128.89887123722548,127.48485624170483,128.0853271484375,228400
2024-01-31,128.60021459721827,128.9888318451337,125.48164086294545,126.18113708496094,537500
2024-02-01,126.74463109681972,127.37611379178679,125.91883235026269,126.78348541259766,298800
2024-02-02,126.25886224020415,126.98750291262765,125.02502655078197,126.3948745727539,344800
2024-02-05,125.45251321054381,127.70643425314584,124.40326873710978,126.92921447753906,319500
2024-02-06,126.76406363533194,127.65786123075873,125.61767590127417,127.39556121826172,369700
2024-02-07,127.66757043860348,128.64880125247385,125.6856594170207,128.0464630126953,393000
2024-02-08,127.89101966708147,130.99988380062553,127.79386164056334,128.3573455810547,620700
2024-02-09,128.34763875632336,135.24544372439263,127.76472023183752,135.0025634765625,650900
2024-02-12,135.19685465206098,136.46954468413216,133.59383624109773,133.6909942626953,491300
2024-02-13,132.79721865694546,133.41899155451992,131.13591108923504,132.05885314941406,275900
2024-02-14,132.37943171551453,133.5452686480157,131.32047749858393,133.26351928710938,335000
2024-02-15,133.26352772923445,133.88530054798204,130.7375821386744,131.19418334960938,471400
2024-02-16,131.51479249745606,134.06989746093748,131.19418878983706,133.58413696289062,453900
2024-02-20,133.2343801311246,136.14894292952246,133.04978878201547,135.71176147460938,373000
2024-02-21,135.1191267571096,136.11979208488648,135.03169343508614,136.01292419433594,276300
2024-02-22,136.46957990444227,138.3640432206591,136.0809773662263,137.44110107421875,295700
2024-02-23,137.9268263528802,138.00454980547522,136.59584743474338,137.33419799804688,190300
2024-02-26,137.47024353315803,138.01429300847857,136.79018168900737,137.87828063964844,199200
2024-02-27,137.87826692977475,138.1308570684184,135.81864702821983,136.31411743164062,244600
2024-02-28,135.67290467799532,137.21763436808848,135.3620256598198,136.41127014160156,189600
2024-02-29,136.62499564942553,137.59651659734325,135.8477759262447,136.4598388671875,250600
2024-03-01,135.89635016734115,136.78042293249038,135.58545635929062,136.29466247558594,151400
2024-03-04,136.68327855712852,138.0725463362649,136.55697609566792,137.9171142578125,260300
2024-03-05,138.21830138260887,139.13153352462706,137.7033964215534,138.461181640625,190200
2024-03-06,138.85947150350745,139.54925784719796,138.42229007474432,138.99549865722656,184000
2024-03-07,140.38476486062655,141.00653762067319,139.7435575325132,140.53048706054688,250100
2024-03-08,140.58881247786712,140.9385606359244,138.89836057655117,139.0149383544922,185200
2024-03-11,138.72349095328647,139.29669966708138,137.9365612363938,138.6749267578125,226700
2024-03-12,138.73321697940324,138.7817959995776,137.45080200313137,138.3543243408203,242200
2024-03-13,138.9274874603586,138.9274874603586,136.91643209967154,137.139892578125,336800
2024-03-14,137.33420459583292,137.58679471072702,136.36268362807073,136.91644287109375,235200
2024-03-15,136.051814987164,138.35433018745536,135.76037050227316,136.98448181152344,599500
2024-03-18,136.91646004723472,137.2759329308813,134.9734178679561,135.2940216064453,299700
2024-03-19,134.9248323837434,136.32382490396157,134.9248323837434,135.53688049316406,253000
2024-03-20,135.65351202822785,136.08098373481303,135.17746129603304,135.98382568359375,220000
2024-03-21,136.3141039613634,137.5673743053394,135.33287312535157,137.12046813964844,255800
2024-03-22,137.96568472502892,138.3931563147583,137.0330329149223,137.55764770507812,276000
2024-03-25,137.17875500009464,139.94759563375453,137.1496105575705,138.88864135742188,316300
2024-03-26,138.76233765022266,140.20018449075258,138.55831173014377,139.12179565429688,314200
2024-03-27,139.57841110454743,141.01625793912805,139.57841110454743,140.54022216796875,218200
2024-03-28,140.69568229822846,141.21058725679168,139.55898965088838,139.7921600341797,247800
2024-04-01,139.69498275629263,139.69498275629263,138.07254464302545,138.23770141601562,204400
2024-04-02,137.80053208284255,137.80053208284255,136.3918296283509,136.625,202600
2024-04-03,136.66387869846383,137.1690738483844,135.88665881187137,136.86790466308594,258700
2024-04-04,137.79082770836482,138.68462526566978,136.95531904023974,137.71310424804688,403600
2024-04-05,137.35361065959495,138.69429923638137,136.93584902155806,137.69363403320312,288300
2024-04-08,137.63539087239522,138.32517736811184,136.39184506466097,136.5084228515625,312500
2024-04-09,136.42098534111196,137.08162736990792,135.3911753903345,136.31411743164062,242600
2024-04-10,135.0220165727078,136.2267082362223,134.50711150606764,135.4300537109375,200700
2024-04-11,135.2940122618255,136.05179747346585,134.50708260544775,135.167724609375,265300
2024-04-12,134.23507075984173,134.99285604404997,132.08801739599699,133.29269409179688,299200
2024-04-15,134.66251781624504,135.82833997705987,133.90473267050376,134.26419067382812,319600
2024-04-16,133.86586195888154,135.4203013711966,133.44811507605868,134.64308166503906,281700
2024-04-17,134.9248215203084,135.50772514064496,134.4099166514401,134.45848083496094,565400
2024-04-18,134.44877343666178,135.46887332130814,134.28361666664966,135.1482696533203,246600
2024-04-19,135.09970992098616,135.93521858652753,134.8179753494098,135.37173461914062,276600
2024-04-22,135.57574676552883,137.1301713362783,135.28428752594058,136.32382202148438,298800
2024-04-23,135.78949299276147,137.13990657658505,135.54661274513685,136.15866088867188,417200
2024-04-24,136.36327776431676,137.28892764322538,136.06122500182607,136.42173767089844,559200
2024-04-25,136.25610434963974,137.62997170625445,135.35968437114948,136.58738708496094,694400
2024-04-26,138.36074617212847,144.70389897172197,138.26330307984543,139.6566619873047,489500
2024-04-29,141.18641384576117,144.2264628084988,140.66999817879426,142.6284942626953,676700
2024-04-30,142.004909646234,142.35568398559658,140.36795777329885,140.6797637939453,585100
2024-05-01,141.2741399676868,143.43724605293235,140.87464405380578,141.65414428710938,359600
2024-05-02,142.02437958989475,142.9695211017198,141.56642381126906,142.18028259277344,356500
2024-05-03,143.33979979107895,143.35929138510804,141.12797220227156,143.0474853515625,303300
2024-05-06,143.97312732609103,145.25930484115804,143.38851334738442,145.22032165527344,260200
2024-05-07,144.51880499832362,146.52600814534517,144.51880499832362,145.88291931152344,392900
2024-05-08,145.8829062711246,147.003427580538,145.64905175216694,146.92547607421875,223500
2024-05-09,147.13008393869177,147.8413709100011,144.82082843851902,145.25929260253906,299100
2024-05-10,145.13262025255216,145.18134179717063,144.29466023538959,144.68441772460938,186300
2024-05-13,144.72341108332498,145.6490611203431,143.0962123120397,144.080322265625,167500
2024-05-14,144.49926977786777,144.5090081386895,143.69053979787014,144.10951232910156,137600
2024-05-15,144.16799714533659,144.53824816281193,143.00849281449825,143.5054168701172,211100
2024-05-16,143.5931171809895,144.10953286493412,142.67720563052816,143.75875854492188,235500
2024-05-17,144.06080105741668,144.37259213874773,143.35925253976436,143.88540649414062,169500
2024-05-20,143.80748238942644,144.60647413522753,143.27157510477068,144.37261962890625,163400
2024-05-21,144.14850961965013,144.86953495193305,143.3202879692016,144.78184509277344,280400
2024-05-22,144.27515098334112,145.0156677443093,143.69052231518623,144.9766845703125,283300
2024-05-23,144.85006990865986,145.1326311002017,143.77825531785473,143.9341583251953,171700
2024-05-24,144.67466674114488,145.01570269104084,143.58337548984295,144.29466247558594,162300
2024-05-28,143.83669409587452,143.9925970803095,142.08283755802526,142.9500274658203,318400
2024-05-29,141.91718337314714,142.94027628000015,140.8064006116937,141.12794494628906,229700
2024-05-30,141.41052828428462,143.21310648226037,141.28385524260108,142.39463806152344,328100
2024-05-31,142.34590711767092,144.041318621011,142.18026577210682,143.9049072265625,358900
2024-06-03,144.69416726211233,144.69416726211233,142.53106134998768,144.36288452148438,266200
2024-06-04,143.86596660891678,144.58700697444903,142.94031652504205,144.3921356201172,287900
2024-06-05,143.93417223495806,144.40186643444855,143.31057501306057,144.12904357910156,229200
2024-06-06,144.2167184531987,144.2167184531987,141.67360827716013,142.21926879882812,197600
2024-06-07,142.03409552174995,142.57974102081013,141.72228959787284,141.81973266601562,179100
2024-06-10,141.11820201101247,142.0730817548525,140.2997336591496,141.8587188720703,125800
2024-06-11,141.19616629951713,142.0048963637283,140.65052068215246,141.7710418701172,147700
2024-06-12,142.49210149645975,142.56029977406186,140.37771700711468,142.0926055908203,221300
2024-06-13,142.15106550525925,142.77466270549132,141.30336701043458,142.0926055908203,232400
2024-06-14,141.37156596501876,141.65414204313348,139.99769849820458,141.040283203125,141500
2024-06-17,141.15718412148226,142.92079402863507,140.86488458704773,142.57977294921875,303800
2024-06-18,142.72593269483835,143.9049287478212,142.7161943322524,142.93055725097656,219900
2024-06-20,142.90134192136517,143.74904045270816,141.9367086883768,142.0731201171875,199900
2024-06-21,142.13156155358197,143.3690174832924,141.5859159092863,143.08645629882812,444100
2024-06-24,143.44694823771815,144.431057927578,142.91104103324926,142.9597625732422,182900
2024-06-25,143.02799086064448,143.0377440913265,140.79668659073084,141.1474609375,194500
2024-06-26,140.55310113558045,141.07925524967655,139.29616833273786,140.02694702148438,192400
2024-06-27,140.1828155517578,140.19256878158996,138.6238301546421,140.1828155517578,377300
2024-06-28,140.0951482862496,140.62131727928735,136.49971468217123,137.20126342773438,435100
2024-07-01,137.75665211276703,137.85408034544307,134.84327587630082,134.9894256591797,306400
2024-07-02,134.930951195947,136.899185643609,134.2294025783195,136.80174255371094,259400
2024-07-03,137.2694253537308,137.77608769489387,136.96737264749603,137.6007080078125,143300
2024-07-05,137.37662989691958,137.81509405611425,136.14891240990124,137.28892517089844,207000
2024-07-08,138.01971219176104,138.8479338848322,137.87356241897373,137.88330078125,249300
2024-07-09,137.2499499009648,137.6494457254706,136.16839710030692,136.45095825195312,238400
2024-07-10,137.1427912342902,138.0002429282775,136.96741149746342,137.6689453125,142000
2024-07-11,137.58126568918084,139.62745197757425,137.14280144673384,138.44845581054688,244500
2024-07-12,139.73463281945706,141.76132750395777,139.73463281945706,140.88438415527344,263900
2024-07-15,141.0500051627038,141.95617833865197,139.471528177945,139.75408935546875,319900
2024-07-16,140.1633376598292,141.5761732749764,140.1633376598292,140.85513305664062,178800
2024-07-17,140.64078357711574,142.03414260124,140.64078357711574,141.1474609375,242300
2024-07-18,140.90386821584644,143.4762084725293,140.89412985288294,142.53106689453125,434200
2024-07-19,142.83311887197172,142.83311887197172,140.95258895745775,142.1997833251953,251200
2024-07-22,142.2484668022471,143.77822196216127,141.52742671137077,143.41770935058594,235700
2024-07-23,144.08032781477473,144.70392506172618,141.9367132076123,142.29722595214844,234500
2024-07-24,142.3264523213691,142.87209798322195,140.21205308009542,140.44590759277344,250600
2024-07-25,139.60533657447922,140.79779389334837,138.03168486117107,138.29559326171875,558100
2024-07-26,139.89855967497675,147.87432007213235,139.13617092314783,143.34886169433594,562800
2024-07-29,143.27066227743248,145.00070512899177,141.89249229543964,144.46311950683594,390900
2024-07-30,144.0526005590325,144.5608497597373,142.12707613546905,142.4593963623047,411000
2024-07-31,143.1924622534942,145.48941215296958,142.12707481683992,143.66162109375,280600
2024-08-01,143.5639027617094,146.16383674718435,142.14662740377614,143.71051025390625,335300
2024-08-02,143.2706780465831,143.68119395387907,140.50456891748377,142.40077209472656,213500
2024-08-05,140.19177372348608,140.19177372348608,136.33095585655514,137.5038604736328,448500
2024-08-06,138.13921411272779,142.79174288819075,137.9241798288671,141.65792846679688,476000
2024-08-07,142.71350311829138,143.93528166502995,140.2308556736058,140.35792541503906,353600
2024-08-08,141.1985404920243,142.8601566956573,141.1985404920243,142.27369689941406,268600
2024-08-09,142.12707150261355,142.12707150261355,140.2308686365047,140.7000274658203,263200
2024-08-12,140.7196023508052,140.92485284608276,139.54669763491262,140.05494689941406,221100
2024-08-13,140.269920069205,142.01951497639055,139.86918811488596,141.11050415039062,212000
2024-08-14,140.87598685966623,141.54062736485398,140.25043671360459,140.6511688232422,115700
2024-08-15,141.72634869442948,144.01351515599896,141.72634869442948,143.6909637451172,277500
2024-08-16,142.8112574093109,143.52477193479024,142.3225459699408,143.40748596191406,250600
2024-08-19,143.01653650230918,144.39469155874292,142.62555836471478,143.65185546875,191200
2024-08-20,143.66162057853262,144.961594887798,143.66162057853262,144.76611328125,387200
2024-08-21,144.8247430345538,146.19314398389653,144.13078115759419,145.95855712890625,267300
2024-08-22,146.1931430052955,147.0043908471752,145.31345349068744,145.62623596191406,200400
2024-08-23,146.28111414215468,147.131467288796,146.06607991196887,147.0435028076172,221400
2024-08-26,147.27808563075303,149.22316270583966,146.7502837904236,146.76983642578125,235500
2024-08-27,146.62321074365258,148.1186666577194,146.4570506325663,147.78634643554688,208300
2024-08-28,147.52242380780478,148.5389519252962,147.52242380780478,148.11865234375,249000
2024-08-29,149.10587309256547,149.45774594898302,147.79612992701317,148.8419647216797,187100
2024-08-30,148.76377592556912,149.9757858009324,148.21642143807964,149.73143005371094,178500
2024-09-03,148.67579943804665,148.9397077997503,146.34952813965234,146.65252685546875,362400
2024-09-04,146.2224723339692,147.49311017712768,146.2224723339692,147.3269500732422,175800
2024-09-05,147.66905729781163,148.33369772794828,146.56456461999554,147.3171844482422,200600
2024-09-06,146.9848515838682,149.6629806227301,146.9848515838682,148.939697265625,319100
2024-09-09,149.12543417994374,149.60436190451168,148.02094141802903,148.48033142089844,241500
2024-09-10,148.44121305528495,149.3404403457152,148.02092836146767,148.08934020996094,158100
2024-09-11,147.38560462789548,147.47358403097817,145.27438232544125,147.43447875976562,178000
2024-09-12,147.48335555565916,148.57806454072724,146.58412818731162,148.52920532226562,200400
2024-09-13,148.75400023614793,149.55547929481034,148.47053923038047,148.8419647216797,138600
2024-09-16,149.58479366168226,149.71186341092198,148.63670717231366,149.5359344482422,182900
2024-09-17,150.52312888636465,152.05769002153292,148.44121330516873,149.5750274658203,259900
2024-09-18,150.2885603665564,151.97951295398002,149.26227811209964,149.61415100097656,214200
2024-09-19,151.52009072611202,155.2245166759197,151.52009072611202,153.35763549804688,412400
2024-09-20,152.78097785998767,152.78097785998767,150.9922920842791,152.3900146484375,663300
2024-09-23,152.64413901555898,153.36743736156149,151.24643136778755,152.4388885498047,315800
2024-09-24,152.6539129888592,153.53360261442796,152.5073055084099,153.09376525878906,246200
2024-09-25,153.74864590320846,154.30576927596866,152.35092321213713,153.59225463867188,284100
2024-09-26,154.3741917455601,155.46890073822925,154.13960485529182,154.80426025390625,371600
2024-09-27,155.09747820529003,157.90269242436605,154.68696232514782,156.28016662597656,354300
2024-09-30,155.6936899424124,156.79818261159085,155.34181709559473,156.57337951660156,289800
2024-10-01,156.9155066212014,156.9155066212014,155.45915566651507,156.35838317871094,192200
2024-10-02,156.25083362745252,156.49518936533394,154.39373598527015,155.1658935546875,186900
2024-10-03,154.42305944347365,156.83729535757135,153.10353247642593,155.3516082763672,367000
2024-10-04,156.32903970950474,157.82449573222064,155.7328110726232,156.95458984375,350500
2024-10-07,155.79144712681207,156.03580287015131,154.4425986510062,155.1072540283203,223300
2024-10-08,154.7065131414347,155.4298115394373,153.5531611461703,155.08770751953125,205900
2024-10-09,154.77492465796232,156.4365406316993,154.5501066490753,156.0944366455078,152600
2024-10-10,154.4816916598629,155.78166590095645,154.4816916598629,155.62527465820312,168500
2024-10-11,157.3064660526596,158.26433645347558,156.7297900399239,157.90269470214844,194400
2024-10-14,161.26501674638376,163.9724675604005,159.76956083662878,163.41534423828125,469700
2024-10-15,163.54240800657777,165.82957403020615,162.73114520381247,164.87168884277344,397300
2024-10-16,164.89122324983595,165.37993464945862,162.17398906107687,162.29127502441406,330000
2024-10-17,163.2101049985483,164.51986328690174,162.7604987247271,164.0995635986328,238200
2024-10-18,165.28223546267512,165.28223546267512,163.99202994227778,164.82284545898438,171500
2024-10-21,164.66642176272074,164.68597439489406,162.54541605771234,162.57473754882812,217900
2024-10-22,161.97854856671012,162.61386758164028,161.08909001437425,162.06651306152344,228500
2024-10-23,162.75068294015622,164.1874958071609,162.40859387114415,163.8649444580078,318100
2024-10-24,164.96265033199813,164.97244548566184,162.83592058676018,163.2279510498047,547300
2024-10-25,165.5506581898616,166.4621158464969,161.32662941673635,165.54086303710938,518900
2024-10-28,166.51109693898178,167.9909874127624,165.39383645811452,165.72706604003906,350000
2024-10-29,165.6584567098737,166.10928794010354,164.29618282133464,165.3350372314453,338100
2024-10-30,164.99203323960487,166.8051234675815,164.76661013936223,165.65846252441406,290300
2024-10-31,165.7172469973065,166.88351308507578,164.51178534847594,164.560791015625,329900
2024-11-01,164.7470008263351,167.57935486885265,164.27656437487803,166.03086853027344,316300
2024-11-04,166.24650753904666,167.1677603744158,164.82541776501486,164.90382385253906,191800
2024-11-05,164.39420326637682,166.9619390225879,164.39420326637682,166.91293334960938,206200
2024-11-06,171.6563823010005,171.6563823010005,168.7064263444236,169.70608520507812,264100
2024-11-07,170.72533703485217,171.96021416270565,170.07849805877953,171.2251739501953,412300
2024-11-08,171.21535702617146,174.29272466184403,171.0095541493443,172.25421142578125,309200
2024-11-11,172.80308164535234,174.47896515686654,172.3914459169607,172.63645935058594,189100
2024-11-12,173.12645192520313,173.70469487939047,171.46036389745427,172.19540405273438,179800
2024-11-13,171.99940490722656,172.87165200345066,171.55838378296605,171.99940490722656,168400
2024-11-14,171.65636354138798,172.28359717955007,170.44110677931556,170.6273193359375,198200
2024-11-15,169.51987152643795,170.29410728655165,162.8555040894364,163.16912841796875,620500
2024-11-18,163.07110850953194,164.47259285308147,161.05220060257204,163.36512756347656,384400
2024-11-19,163.10050135971352,164.32556823234182,162.88488839377655,163.5709228515625,287600
2024-11-20,163.66893726279943,165.57024347760301,162.34585903369347,165.3644256591797,221800
2024-11-21,165.32524989622468,166.83452591248917,164.3942019349008,166.49151611328125,205100
2024-11-22,166.78550102159357,168.63781653249123,166.78550102159357,168.08897399902344,241600
2024-11-25,168.61822873869966,170.54893557134125,168.31441450843965,169.0592498779297,270100
2024-11-26,169.41206482132665,169.41206482132665,167.74597670276387,168.60841369628906,140300
2024-11-27,169.22586404114253,170.41173555223975,168.0988083114946,168.3046112060547,167200
2024-11-29,169.1474408135347,170.02949799270758,168.65741403213775,169.51007080078125,117300
2024-12-02,169.52966938718723,169.65708114199288,167.43235525852162,169.31405639648438,170900
2024-12-03,169.99028664377565,169.99028664377565,167.67735964872438,168.9612274169922,160100
2024-12-04,168.46141115590896,169.44146474689205,167.61856446948624,169.14744567871094,173400
2024-12-05,168.5790016500735,169.00043244262315,167.12852661860668,167.68716430664062,245000
2024-12-06,168.17719634246092,169.206240613641,167.44215617480054,167.7361602783203,209200
2024-12-09,168.13799201141873,170.00989796299024,166.8345189382819,167.3833465576172,301700
2024-12-10,167.31473348857958,167.95176227713316,164.83519934812907,167.50094604492188,287000
2024-12-11,168.4516157508474,170.6273359159199,168.32420399879283,168.87303161621094,418600
2024-12-12,168.24578529682086,169.1572428430024,167.37353826575998,168.2163848876953,178300
2024-12-13,167.50097468369896,167.58917592406897,166.43271978295425,166.8051300048828,153200
2024-12-16,166.74630591386563,167.52054161759173,164.24716643769864,164.286376953125,236100
2024-12-17,163.57093094101776,163.5807410473189,159.59191593464618,159.83692932128906,511900
2024-12-18,160.4249646681731,161.14039955760865,154.76025646290137,155.0542755126953,468600
2024-12-19,155.34829094522857,158.34726752667316,155.07387713324243,155.70111083984375,404700
2024-12-20,155.55410914655246,156.59296357357135,154.32904214215637,155.02487182617188,730200
2024-12-23,154.03504524233003,155.73053403322555,153.82924233044926,155.35812377929688,194900
2024-12-24,155.61291680874774,156.2401505443862,154.77007007450553,156.1715545654297,100500
2024-12-26,155.26008773522096,156.44595915755792,155.26008773522096,155.6815185546875,164500
2024-12-27,154.67207884417124,156.39696793613152,154.46626099156944,154.9954833984375,145000
2024-12-30,153.86840893166374,154.34864055969513,151.90830181151514,153.60379028320312,221700
2024-12-31,154.14281786238718,155.09347098198026,153.0647529985919,153.96641540527344,317100
2025-01-02,154.50542966476186,154.95626085871288,150.38920791910837,151.08505249023438,239400
2025-01-03,150.9674458911304,152.61394367101406,149.82078500459767,152.39833068847656,250700
2025-01-06,150.92827181639163,151.5555055945941,148.41933670358165,149.86981201171875,369000
2025-01-07,152.8099524460056,152.94715934907052,149.55618233571022,150.36961364746094,361200
2025-01-08,149.84039419615527,151.1830628417546,149.05634832584286,151.07525634765625,228600
2025-01-10,149.67380144035604,151.22228807240447,149.53659452128502,150.3892364501953,350800
2025-01-13,149.87959178115395,151.61429086251573,149.87959178115395,150.82044982910156,349300
2025-01-14,151.72208498613796,152.34931864881253,150.41861199327377,151.5260772705078,196900
2025-01-15,153.0059656935918,153.7900115770172,151.09486413391397,152.45713806152344,206100
2025-01-16,152.78055957623786,154.03502702458957,152.21212667707357,153.29019165039062,346300
2025-01-17,153.83901445152966,154.79946279018606,152.5747369358163,152.9765625,231900
2025-01-21,153.5940154588304,157.0633989407048,153.5940154588304,156.64198303222656,270900
2025-01-22,156.16174421991363,157.54362344855716,155.18169057482152,155.8971405029297,280000
2025-01-23,155.29929122166507,156.6223545339136,154.58384136708125,156.43614196777344,149800
2025-01-24,156.46554994853224,157.26920107193223,154.08402689859372,155.14248657226562,329600
2025-01-27,155.09348331003815,155.75011743220608,153.52539155704252,155.29930114746094,317000
2025-01-28,154.42704949078208,157.15159724174742,154.42704949078208,155.2600860595703,204300
2025-01-29,155.61288373648753,155.65209424849948,153.49596472070252,153.9761962890625,265800
2025-01-30,154.67206164041292,155.51489335460406,153.4567898296652,154.9758758544922,274200
2025-01-31,154.75045154888468,156.21073674071707,153.63319108572594,154.01541137695312,834100
2025-02-03,151.49669007178431,153.62340462840817,151.0654640871359,152.86875915527344,364600
2025-02-04,152.97657163323618,155.29930896783935,152.97657163323618,154.55445861816406,302400
2025-02-05,155.56678689466608,156.92313594175852,155.07535781931088,155.60610961914062,262600
2025-02-06,157.1000465610709,157.1000465610709,152.70666933390916,153.76815795898438,446600
2025-02-07,154.91808990897187,155.19328897894562,139.60515881383517,140.72561645507812,1221500
2025-02-10,141.78711035544322,142.12129352206097,138.48470639401995,140.82391357421875,621900
2025-02-11,139.83124474666104,140.61753433103604,137.8556901038002,139.85089111328125,377300
2025-02-12,138.55351384739762,141.03032057107268,137.53133297854282,139.27099609375,423500
2025-02-13,140.30300099128152,141.31534368657196,139.03512057584868,140.32266235351562,665900
2025-02-14,141.22689417596524,142.81911962723777,140.27352054231486,142.3080291748047,512800
2025-02-18,142.30805005152797,144.76519586011813,141.43330674355897,144.3818817138672,489600
2025-02-19,143.63488862497093,144.9617531188217,143.1139750082088,144.5194549560547,331000
2025-02-20,144.45065614390467,144.89293928942035,143.41865213955174,144.16561889648438,283100
2025-02-21,144.5096565691603,144.86348616175033,142.71102405659659,143.83148193359375,451900
2025-02-24,143.67418921142476,144.76516229739394,141.88539527604814,143.1139678955078,353300
2025-02-25,143.3793614383485,145.7873610696006,143.22210052435642,145.17799377441406,336700
2025-02-26,144.13615069776068,146.62278077273558,144.10666615119783,144.12632751464844,735600
2025-02-27,143.7233423633532,144.65705460178307,142.86826057620084,143.13363647460938,262800
2025-02-28,143.6545381184058,144.43098938956481,142.1507664814693,144.2344207763672,348700
2025-03-03,144.45066986764067,146.2886098899811,143.19261258000728,144.07717895507812,394100
2025-03-04,143.04517170760187,145.413863500686,142.65203443781988,143.43832397460938,490100
2025-03-05,143.54644673744147,146.2984527664409,143.54644673744147,145.89547729492188,445100
2025-03-06,145.0305485219981,148.9030120941682,144.53911943917907,148.5590057373047,471700
2025-03-07,147.92997950600335,150.7311313223095,146.62277632487553,150.16107177734375,480200
2025-03-10,149.46323979987926,151.36014875114464,147.6646076611565,147.98895263671875,391100
2025-03-11,147.76290385774493,147.9791338698189,144.74553686653798,145.3549041748047,304000
2025-03-12,145.69890235666847,145.69890235666847,143.0648346293028,143.5267791748047,299700
2025-03-13,143.900274240468,144.67672562820923,141.29569098355023,142.27854919433594,238400
2025-03-14,142.74048587257624,144.3720340117381,142.0623113450195,144.14598083496094,223600
2025-03-17,143.99853726172162,145.46300125443267,143.35968548483189,145.3057403564453,225200
2025-03-18,144.8634565180648,145.00105605384658,143.28105435796206,143.79214477539062,219900
2025-03-19,143.83145115048603,144.93226242362806,142.9763694002447,144.46047973632812,279600
2025-03-20,143.62506440139353,144.8929447997195,141.266195873561,142.71099853515625,332800
2025-03-21,141.5315735327772,142.96655302987472,139.9196867674318,142.3375244140625,601900
2025-03-24,143.25159336230843,145.63993176823914,142.42599601190474,145.4532012939453,463800
2025-03-25,145.94461117942933,146.67191660765496,143.4284817335018,144.68655395507812,325200
2025-03-26,144.52930198564368,146.15101202434067,143.79215833219487,146.01341247558594,630400
2025-03-27,145.73820579296662,147.32060801990121,144.50963310116106,146.7898712158203,312700
2025-03-28,146.73089236026235,147.42872827286658,143.2614041546856,144.41134643554688,239800
2025-03-31,144.06735434534886,146.5343229870739,143.59558661646503,145.8365020751953,372500
2025-04-01,146.3279289386792,147.45820983366664,144.85364168579534,146.54415893554688,240000
2025-04-02,145.4630159103769,148.53936692435062,145.4630159103769,147.94964599609375,247600
2025-04-03,144.24425830925108,147.47787005738485,143.9494128587316,146.12152099609375,352900
2025-04-04,142.73066750752537,145.42370434629547,137.63945428633932,137.7770538330078,531600
2025-04-07,134.00287530876898,139.6837941624517,128.60699371434606,132.3418426513672,629900
2025-04-08,135.025053604175,136.9219625810332,129.02961306087627,131.3688201904297,473800
2025-04-09,130.89705451371228,141.94438664080494,129.06895256636582,141.28587341308594,491800
2025-04-10,137.60014014324574,140.9123672890104,135.21180205228458,138.34710693359375,309000
2025-04-11,138.45522828256912,142.2294151261458,137.3446087271347,141.6396942138672,203000
2025-04-14,143.30073173513014,143.89043766986302,141.3251771111253,143.2908935546875,249300
2025-04-15,143.59560325421714,144.02804830741772,141.30554162152515,141.47262573242188,250700
2025-04-16,141.59054573403094,143.32038571345137,140.12609665726538,142.51443481445312,307700
2025-04-17,142.90755073515064,143.2613802237896,138.29795919882474,141.36447143554688,390600
2025-04-21,140.84356906765697,141.5807126444271,138.68128424190948,140.1359100341797,291600
2025-04-22,142.02301901433995,144.3032573833429,141.12861439560723,143.5169677734375,217800
2025-04-23,145.3352237379666,146.76037999339664,144.69637196618555,145.51214599609375,537000
2025-04-24,145.394235084011,149.3944759478638,142.96658864730884,148.86373901367188,424500
2025-04-25,148.26416156627027,150.3773006417577,145.04038795490476,146.5048370361328,220500
2025-04-28,147.23217244152312,148.4410839192939,145.73822366585122,147.13388061523438,235200
2025-04-29,147.1928352219858,149.37478157519996,146.4556915890682,147.7235870361328,359900
2025-04-30,146.51468782594912,147.41891562430362,144.68657086484222,147.3795928955078,556200
2025-05-01,146.34446689472773,148.3949671666266,144.87560983167245,146.1768798828125,445300
2025-05-02,150.8200800146687,150.82993276495682,145.69382189987473,149.8441162109375,431600
2025-05-05,149.28221860672525,151.04683895827645,148.74003144492053,149.33151245117188,267600
2025-05-06,148.11893891054953,149.88354394348798,147.30070935640887,148.77943420410156,312000
2025-05-07,149.725822860132,150.97779905174502,148.4836843764286,149.24276733398438,318400
2025-05-08,149.6370904773431,152.3776743797429,149.0949033979698,151.18482971191406,302500
2025-05-09,151.72702915659627,152.11149701025283,150.77078589758978,151.14540100097656,231600
2025-05-12,153.58035336298764,154.36900960970033,151.52000038825545,153.31419372558594,352500
2025-05-13,154.09298971226121,154.09298971226121,151.02709949704072,151.4608612060547,339400
2025-05-14,151.44115218055256,151.44115218055256,148.8287440194347,150.31732177734375,350100
2025-05-15,150.18917452174261,153.2747704460007,150.18917452174261,152.75228881835938,278100
2025-05-16,152.9790195330319,154.9210795243073,152.3973913234781,154.78306579589844,278600
2025-05-19,154.14229995484683,156.0942128107709,154.09300611132787,155.83790588378906,185400
2025-05-20,157.98696796016725,157.98696796016725,155.6703079013984,156.28150939941406,388100
2025-05-21,154.6351912204993,155.413979709526,153.61980133414392,154.2310028076172,319800
2025-05-22,154.14229666137166,155.02952565627956,153.35364030902645,154.4281768798828,278900
2025-05-23,152.9198641452087,153.964827320536,152.07206127878644,153.72824096679688,260500
2025-05-27,154.8027705397575,156.1927754755183,154.46759652531446,155.916748046875,352800
2025-05-28,155.91675648544185,156.58710455060864,155.02951252332593,155.1675262451172,364400
2025-05-29,155.59145747600414,156.4195399252891,154.59578798643793,156.08436584472656,232100
2025-05-30,155.99563159879617,156.52796596940533,154.31973126540694,156.15335083007812,335100
2025-06-02,155.30553295861694,156.81384612191334,153.0578724238055,154.68447875976562,349600
2025-06-03,153.9648187854225,155.20695724316363,153.78737902995462,154.04368591308594,397800
2025-06-04,154.2704388516904,154.30001214509375,148.15836414730086,148.27667236328125,831900
2025-06-05,149.43008223768163,151.1651140408049,146.9359674396561,150.32717895507812,482400
2025-06-06,152.18050703516937,152.28894746522036,150.05115456510006,151.1355438232422,264700
2025-06-09,150.544055582443,151.007375533086,149.21319719105352,149.44979858398438,388400
2025-06-10,150.001860330608,150.82994268025288,148.7202957176617,150.36660766601562,323500
2025-06-11,150.82994254149838,151.4115707359019,149.4498052933599,149.7652587890625,380800
2025-06-12,149.2624939294629,152.4269567686982,149.2624939294629,152.16079711914062,337200
2025-06-13,150.829935873921,151.53972501083467,148.59212803830783,149.0160369873047,361200
2025-06-16,149.09489874958857,150.73134277186625,148.97659053611832,149.53851318359375,346200
2025-06-17,148.52313648415543,149.11461743433793,147.01483824975645,147.33029174804688,379700
2025-06-18,147.00497623832817,148.59214167031755,147.00497623832817,147.57675170898438,383200
2025-06-20,148.15837561472694,148.6315784305405,146.8768260217442,148.16824340820312,570500
2025-06-23,147.3697197894407,151.75660037829923,147.3697197894407,151.6087188720703,356500
2025-06-24,152.37767518899636,152.37767518899636,151.0073757093355,151.68759155273438,246600
2025-06-25,151.67775053438675,152.33824588551536,150.6032139948955,151.7467498779297,264700
2025-06-26,152.3382342669548,153.37334468009956,150.94822928479945,152.2889404296875,658200
2025-06-27,152.4663887853865,153.89581975146424,152.04247985366143,153.6099395751953,643100
2025-06-30,153.8169678164779,154.2803028366932,152.41711000476906,154.21128845214844,315500
2025-07-01,154.2112909513434,157.53350328229894,153.7479709659874,156.75469970703125,338300
2025-07-02,156.7645627082632,158.2531403852606,156.399800331021,158.04612731933594,293500
2025-07-03,158.3221432480809,159.07135840752164,157.55320754586447,158.75588989257812,235100
2025-07-07,158.66717993630388,160.0670377135844,158.27285931033134,158.6770477294922,313900
2025-07-08,158.61788810431491,160.2740678475626,157.58279268744894,157.7799530029297,342700
2025-07-09,157.66163784587226,157.7405049770696,155.85760674831414,157.4644775390625,252800
2025-07-10,156.93216884062392,158.08557261835003,156.08436584472656,156.08436584472656,361600
2025-07-11,156.31107345675375,156.31107345675375,154.40845469060778,155.66043090820312,292000
2025-07-14,154.91121519337966,156.6856880276844,154.46760074539523,155.32525634765625,276600
2025-07-15,155.50270521521296,155.7590120983507,151.8847603468732,151.97348022460938,254200
2025-07-16,151.73689710833995,153.4029296552156,151.37214976104823,152.7818603515625,261900
2025-07-17,152.5452588316346,154.1915706701163,152.31851019393284,153.81695556640625,397700
2025-07-18,154.62533756237983,154.98023213510643,152.72270372898328,154.16200256347656,243100
2025-07-21,154.2014214703955,154.44787560553723,153.0381651728625,153.24517822265625,205900
2025-07-22,153.8958183896831,157.09972209739536,153.0282950337299,156.91241455078125,449900
2025-07-23,157.7996815698846,159.55443403890214,156.88286424485372,159.36712646484375,450500
2025-07-24,159.11996916058192,162.4020082574344,157.96333091025235,159.9701385498047,431900
2025-07-25,160.19750774667867,161.22561221674488,158.94202169024894,159.14962768554688,296300
2025-07-28,159.35722424092228,160.12830639187274,156.35198291982778,156.88580322265625,308500
2025-07-29,157.23180681567746,157.7755224517839,155.4227248360997,157.0044403076172,388200
2025-07-30,156.98465159805863,157.11315522177728,153.14900170497543,154.99761962890625,580700
2025-07-31,153.99917438750097,155.55123391765005,153.4060273513415,155.3436279296875,679700
2025-08-01,155.1755793394096,156.31242693918023,139.47710868616434,139.73414611816406,1012300
2025-08-04,141.4838983520282,141.4838983520282,135.51295211602235,137.53952026367188,839000
2025-08-05,137.7471203907678,139.4573546226765,136.1159885271504,138.6170654296875,540800
2025-08-06,138.70603871474566,139.1508915064958,135.97759518556805,136.95626831054688,515300
2025-08-07,138.2018575966745,139.87254051260254,137.32203237332467,138.88397216796875,564000
2025-08-08,139.08169477744622,140.42614844511056,138.97295164681316,139.14100646972656,428700
2025-08-11,139.71437362843554,140.00105182700324,137.60871811175764,138.27105712890625,349500
2025-08-12,138.61704399688827,139.47709356461323,137.63835597942716,137.885498046875,286100
2025-08-13,138.09311785531034,139.82311250076222,137.65814535952828,139.81321716308594,729900
2025-08-14,138.58740244327777,138.58740244327777,134.8802710493718,136.758544921875,875800
2025-08-15,136.77831584476164,137.36156754391794,136.29391192878876,137.1342010498047,770500
2025-08-18,137.30225854285285,137.97449286968606,135.7798699097183,136.31369018554688,529500
2025-08-19,136.6893602194093,138.9136391735608,136.6893602194093,137.9942626953125,333100
2025-08-20,138.31061475109956,139.63529284706667,137.6680362112774,139.5660858154297,519200
2025-08-21,139.02237682659523,140.27784781496257,138.6368357597722,139.03225708007812,270400
2025-08-22,139.64516235050763,141.691506114476,139.5759704085548,139.81321716308594,356500
2025-08-25,139.35848463440877,139.99116778923627,137.3714676366746,137.964599609375,245800
2025-08-26,137.4802014096915,138.5577372418402,136.43230633558758,138.11288452148438,442900
2025-08-27,137.4999575948114,138.9630495009008,137.4406459118749,137.84596252441406,729100
2025-08-28,138.56762766903606,138.56762766903606,135.8292890396428,137.30226135253906,320800
2025-08-29,137.57905461233506,138.2710494362034,136.76843641419092,137.67791748046875,370700
2025-09-02,135.84904971762435,136.94636109960283,134.6133393813583,134.85060119628906,310600
2025-09-03,134.5243943101381,134.62324210292473,132.9031426817368,133.67422485351562,382300
2025-09-04,134.79130216014153,136.8969425133348,133.49626493537275,136.87718200683594,401800
2025-09-05,137.43077574465525,139.21020178510477,136.0566663464884,137.03533935546875,440800
2025-09-08,137.005687591299,138.3995726215184,136.1060867490136,136.71900939941406,616100
2025-09-09,136.67946624256135,137.88552093868483,133.55560145550504,135.48330688476562,637100
2025-09-10,134.5738357125756,135.88863363727893,133.30846923010407,134.6924591064453,685100
2025-09-11,135.18672513791338,136.6992335433112,134.31678014184178,135.53273010253906,477500
2025-09-12,135.05820672958419,135.4832989752159,133.67421703664533,133.68409729003906,261300
2025-09-15,134.41564821558472,134.6133588811563,133.09097016346266,133.30845642089844,298000
2025-09-16,133.2491251648004,133.8719280705481,132.56702565416762,133.66433715820312,474800
2025-09-17,133.87191960070743,135.5030663734287,132.65598479511914,133.1107177734375,377400
2025-09-18,133.35786944137865,133.9608967611341,132.53737095397892,132.9624481201172,254800
2025-09-19,133.12062346030297,133.5555959668464,131.81570594067267,132.90313720703125,877200
2025-09-22,132.58679434770661,133.39742770900972,131.1533731265575,131.2028045654297,402100
2025-09-23,131.48947627590215,132.41873297707602,130.46137178622766,130.51080322265625,319700
2025-09-24,130.49103409799787,131.7860563410793,129.83857530726212,129.9967498779297,353300
2025-09-25,129.99674318999885,131.0050871706818,128.7808082948073,129.32452392578125,388700
2025-09-26,129.82867757462216,130.91609366176084,129.4629121280084,130.77769470214844,274400
2025-09-29,130.88645346701895,131.16325141933544,129.85834894189443,130.75794982910156,540600
2025-09-30,130.20434429084327,132.23089734514227,130.20434429084327,132.13204956054688,310400
2025-10-01,131.80581420869075,132.82403835835518,130.7974703117304,132.60655212402344,310100
2025-10-02,132.1320554290962,132.85370613455356,131.44006056877018,131.65753173828125,398500
2025-10-03,130.95565622479634,132.0529677443783,130.91610504183745,131.69708251953125,402000
2025-10-06,131.37085466398543,131.67730845586786,129.90777764901935,130.37240600585938,447100
2025-10-07,130.59976556964224,130.99518687665005,128.32605534345748,129.09713745117188,438800
2025-10-08,129.68039176507327,130.50090532374472,128.77091067319023,130.10548400878906,361300
2025-10-09,130.19444872342635,131.32141603944422,128.71159619791044,129.11691284179688,554200
2025-10-10,129.4431381350315,130.5008983927555,128.40513838295638,129.43324279785156,426000
2025-10-13,129.49258620457584,130.8370398948493,128.67207258406597,128.73138427734375,311400
2025-10-14,128.55343940983934,129.5617834901798,127.56487092285874,128.31619262695312,337400
2025-10-15,128.31618340743444,128.8994351526004,126.39835826699053,126.6356201171875,438300
2025-10-16,126.97171654630597,128.0195965446806,126.38845731965263,127.68348693847656,352700
2025-10-17,127.68349986264782,128.61275658450555,127.37704606806854,127.86143493652344,339700
2025-10-20,128.12835965793974,128.6028682986525,126.55653941508275,128.51390075683594,240500
2025-10-21,129.11691341640903,130.2636563281568,127.64394113747322,129.07737731933594,311600
2025-10-22,129.1564481138655,130.59976453326686,128.49410913348765,128.5731964111328,357500
2025-10-23,128.73197123448563,130.50805690169727,128.65259098954968,129.75396728515625,378600
2025-10-24,129.73411268037526,129.87302431778892,127.54127703952456,127.87864685058594,489300
2025-10-27,128.1366224648553,128.89071205489756,127.45198112404552,127.7794189453125,521700
2025-10-28,127.74965710905877,128.10686063940022,126.47960347678546,127.1047134399414,413500
2025-10-29,126.29107194406481,126.50936382227088,122.46106236313027,123.34414672851562,651100
2025-10-30,123.0762548978033,124.54475159294849,122.08402453671503,123.39376831054688,702600
2025-10-31,114.39423553008093,117.18240033192052,102.42794018569283,115.108642578125,2758200
2025-11-03,115.18801418737364,115.18801418737364,107.44862223530946,112.24109649658203,1661000
2025-11-04,113.47146370471108,115.09872087701821,111.65568034301285,113.29286193847656,1029100
2025-11-05,113.44169462480497,115.13840756841266,111.89381017352693,114.67205810546875,896900
2025-11-06,114.12632587945619,116.05125508565277,112.91581127124762,115.24755096435547,880300
2025-11-07,115.32693339499808,116.01156716794395,113.79889779417432,115.31700897216797,697200
2025-11-10,115.08879219606841,115.86273063108003,113.11425598749823,115.47576141357422,514000
2025-11-11,116.05125494853503,118.58144524090463,116.05125494853503,117.35107421875,484800
2025-11-12,117.42052991643766,118.74019803055835,116.99387815530137,117.24193572998047,547500
2025-11-13,117.38085119077797,120.93303002263367,117.38085119077797,119.26608276367188,679400
2025-11-14,118.8394216459119,119.75227929014665,117.47014653473461,117.68843841552734,521200
2025-11-17,117.56937122538191,118.56160156840677,116.65652112662708,118.41276550292969,820200
2025-11-18,118.73028226930452,119.1767828797841,117.14270772067383,118.38299560546875,817400
2025-11-19,118.5814455351289,118.5814455351289,116.79542796312874,117.08317565917969,598900
2025-11-20,117.08317313835506,118.68066449610633,116.45807078667181,117.6586685180664,507400
2025-11-21,117.21216086173891,121.29022793939164,117.21216086173891,120.57582092285156,509100
2025-11-24,119.91102909425057,121.44898907258941,119.5042186116015,120.52621459960938,740000
2025-11-25,121.45891525209124,123.11593804438662,121.45891525209124,122.48091125488281,543600
2025-11-26,122.06416725085363,123.55251268958358,122.06416725085363,122.84803009033203,538000
2025-11-28,122.66943052847252,125.10039933060551,122.66943052847252,123.78073120117188,315700
2025-12-01,123.90971816318398,123.9890984046682,122.07409360703122,122.32215118408203,536800
2025-12-02,122.80834273936739,122.8976474041654,119.86142506313116,120.65520477294922,325400
2025-12-03,120.50637218565886,123.29454459847216,120.46668963362305,121.11163330078125,543100
2025-12-04,121.25053931737644,123.11593712141129,120.9826404679227,121.07193756103516,708000
2025-12-05,121.0421717426921,122.55036603254122,119.6828210814482,120.96279907226562,537000
2025-12-08,119.98048683677486,121.15131890116776,118.37307858523162,119.13709259033203,496600
2025-12-09,118.67074319979267,118.91880077653559,114.46368881786525,114.82089233398438,640300
2025-12-10,115.26739038159026,116.88473059087394,114.23546997686611,116.2596206665039,734700
2025-12-11,117.04348695770692,117.74796957239353,116.2497072483959,117.09310150146484,389700
2025-12-12,117.59913070053165,120.69489193216835,116.7358951926614,120.52621459960938,656400
2025-12-15,120.53613763713133,121.508519071394,119.54390735802136,121.37953186035156,588600
2025-12-16,121.71688801826957,122.88772006482098,118.59136108661724,121.87564849853516,644800
2025-12-17,121.16123927977195,123.63189054068698,119.14701303616661,122.66942596435547,567300
2025-12-18,122.70911937736454,123.15562755440962,121.08186229106413,121.66728210449219,457100
2025-12-19,122.38168448192317,123.36399795279324,120.31785116207733,120.44683837890625,1300400
2025-12-22,120.44683702770696,122.73888662712453,120.1293236305144,121.78634643554688,527800
2025-12-23,121.91534038479175,122.07409329724082,120.37738038293297,121.2406234741211,311700
2025-12-24,121.57797277960053,122.21299954160835,120.8139588087873,121.7962646484375,198000
2025-12-26,121.41922894554897,122.52060522415447,120.77427771310445,122.29238891601562,306000
2025-12-29,122.33207341633238,123.34414498172643,121.36960882339034,122.25269317626953,400200
2025-12-30,121.8458854019756,123.3342308707125,121.46883303835433,121.78634643554688,289800
2025-12-31,120.57582164498164,122.37176361957204,120.40714431232067,121.01240539550781,314300
2026-01-02,120.79411100995517,122.04432327040651,119.84157085869765,121.58789825439453,295100
2026-01-05,120.81396333104647,123.61205247154165,120.81396333104647,122.04432678222656,435700
2026-01-06,121.2703893294616,121.89549169761267,119.17678277613919,119.62328338623047,777200
2026-01-07,119.73242778357526,121.0024813489251,116.69620550577852,119.50421905517578,478500
2026-01-08,118.98826090452039,122.41146012961788,118.59136725333443,121.48868560791016,330000
2026-01-09,121.13148146291526,123.9990265337246,120.51629592819934,122.88772583007812,429100
2026-01-12,123.0365583546262,124.32646078477775,122.02448676997972,124.15777587890625,477300
2026-01-13,124.07840343065625,124.46537264637453,121.58790323017156,122.54044342041016,351900
2026-01-14,123.1457089980577,126.1720145851002,123.1457089980577,125.86441802978516,611700
2026-01-15,126.15215809530929,126.23153833510459,123.5525120178855,124.13793182373047,381000
2026-01-16,123.03656046752509,124.22723383109965,122.28246329986567,123.74104309082031,363400
2026-01-20,123.92956647771405,124.55466884396232,122.4809111423571,122.85795593261719,275100
2026-01-21,123.34414579788033,124.64397263463209,122.93733531257004,124.03871154785156,421000
2026-01-22,124.07840219082979,125.42783600604635,123.09608874217598,123.5029067993164,369700
2026-01-23,123.37391303470616,125.29884225734148,122.90757114819523,125.0210189819336,429500
2026-01-26,125.43775721229031,126.00332820078921,124.12801347207618,125.36830139160156,315400
2026-01-27,123.9791728132312,125.3186897727715,123.205234391347,123.77080535888672,303100
2026-01-28,123.235006777915,124.09824991001042,122.29239097089199,122.7388916015625,347800
2026-01-29,123.32430960117436,124.30661551602421,121.63751348474041,122.88772583007812,386000
2026-01-30,121.95503612712301,124.03871835108907,121.70697853926713,123.97917938232422,512700
2026-02-02,123.23499750184895,124.93171793896286,123.23499750184895,123.860107421875,489100
2026-02-03,122.94725978548665,126.93602225021577,122.72896790883826,123.66165924072266,658700
2026-02-04,125.21552867481128,129.90700134775133,124.20949930267037,128.7216796875,589400
2026-02-05,127.16782066467043,128.5722782146923,121.48028130551128,123.49234008789062,2144200
2026-02-06,127.02836268310486,135.45509216979158,127.02836268310486,133.7816925048828,1045700
2026-02-09,133.05457384055362,139.02101804829903,132.72587004959905,137.9253387451172,1043400
2026-02-10,137.26793457923543,140.37565748193367,137.26793457923543,139.61865234375,622100
2026-02-11,138.48313331396238,139.99715874839507,138.05483198642824,139.4592742919922,584300
2026-02-12,139.60869173387061,141.44145054391814,138.84171623230802,139.95730590820312,572700
2026-02-13,139.9573151020267,142.3677944950846,139.85771755943315,142.01918029785156,471900
2026-02-17,138.71222079286514,143.055071512211,138.71222079286514,141.0928192138672,614700
2026-02-18,140.9135352437976,142.54708376856578,140.2860084572567,141.1625518798828,582000
2026-02-19,141.0928230678908,142.7562676088946,140.4752666602554,142.59689331054688,525500
2026-02-20,142.55704525117903,144.56910401516237,141.44145553591065,144.47946166992188,664500
2026-02-23,142.9255958993581,145.6647789342487,142.5670113304762,145.14682006835938,513500
2026-02-24,145.49544486452967,146.33213709933392,143.28417595914058,143.57302856445312,429800
2026-02-25,141.8498473766502,143.0949306198296,139.87762457633954,142.1187744140625,348900
2026-02-26,142.95547535989397,143.35389589996325,140.44538340090327,141.23226928710938,331300
2026-02-27,140.97329664666827,143.44353741820976,140.44538259466083,143.1447296142578,344600
2026-03-02,142.43751420451355,142.78614357053576,141.06293752550724,142.1088104248047,335000
2026-03-03,140.08679425249235,140.76412738697488,136.38142559574294,139.2102508544922,347300
2026-03-04,138.79191754238275,138.9612470419286,135.47501391314069,136.50096130371094,389000
2026-03-05,135.46505150535157,135.80371048641027,133.88130933030985,134.20004272460938,452300
2026-03-06,133.47291651624107,133.47291651624107,130.48471689274314,131.5604705810547,398500
2026-03-09,130.45484354440993,133.45299853256722,127.02837201579013,133.22390747070312,545700
2026-03-10,132.82547764917305,133.60240832546756,130.88313575966777,131.6102752685547,503100
2026-03-11,131.2815812945587,132.75575561111177,129.5284943463408,131.50071716308594,563800
2026-03-12,130.7536581494707,132.26766833775483,128.13399830193273,128.35313415527344,620600
2026-03-13,129.6380511924889,129.6380511924889,126.55025410703881,128.14395141601562,660600
2026-03-16,128.97069022910543,130.8931065380538,125.50438295551326,128.54238891601562,370700
2026-03-17,129.45876833048925,130.50464122844355,127.73557748644285,128.99061584472656,276700
2026-03-18,123.89075860801685,126.08210964583039,120.94240244020646,123.73139190673828,910500
2026-03-19,122.52615308632394,124.32903117833895,120.97228404186016,123.48237609863281,518500
2026-03-20,123.77123411184346,123.77123411184346,119.83676660084556,120.58381652832031,1481500
2026-03-23,123.02418368013113,125.84304628604973,122.50622481021608,123.65170288085938,455200
2026-03-24,122.67556308818467,124.72745780194329,122.38670286935901,123.66166687011719,405000
2026-03-25,124.94659356774676,126.07214606142944,123.22339504970952,125.3250961303711,337200
2026-03-26,124.72746089618293,126.83911722505529,123.6317891558115,124.19954681396484,442100
2026-03-27,123.45249678230496,123.72143142045898,121.28107129127055,121.51016235351562,381400
2026-03-30,122.07791483255923,123.45249154525831,120.62365857080745,122.87477111816406,562000
2026-03-31,123.90072145898677,126.46061226934556,123.1038651540704,125.52430725097656,557800
2026-04-01,126.83910993884153,128.13399948450484,125.83308820196113,126.25143432617188,380200
2026-04-02,124.64777023751822,126.5900970135599,123.76127159620845,125.51435089111328,297500
2026-04-06,124.0999305830527,125.6936431780852,124.0999305830527,125.51435089111328,461100
2026-04-07,124.82706080661809,126.6697824199569,124.30910953992999,125.11592102050781,376900
2026-04-08,130.86323514521675,132.1481543754263,127.64592907491694,131.50071716308594,645200
2026-04-09,130.70386349661462,131.91906599267529,126.83912013545304,130.88314819335938,424100
2026-04-10,131.7298075164679,132.178034445579,130.3353203595067,130.98275756835938,407400
2026-04-13,130.28551770076956,131.89914077103793,127.07818194963497,131.59036254882812,396300
2026-04-14,130.71381054193466,132.197955189354,130.45483870763653,130.4946746826172,315500
2026-04-15,130.29547082253353,130.51460669263554,128.0941721257409,129.14002990722656,407100
2026-04-16,126.40084558822308,129.81735412824597,126.40084558822308,127.78536987304688,393800
2026-04-17,129.14002424182965,131.7796097617975,129.14002424182965,130.11618041992188,401100
2026-04-20,130.05641512792803,131.47082778766443,129.1499909308814,130.405029296875,403600
2026-04-21,130.18589466096142,131.72980084865796,126.1916732788086,126.1916732788086,310200
2026-04-22,126.77935427393615,126.77935427393615,122.47634691200882,124.06009674072266,458900
2026-04-23,124.88682675562279,126.93872910578784,123.95052932532681,124.44856262207031,440800
2026-04-24,123.9206456254592,123.9206456254592,122.08787918491913,123.5919418334961,440900
2026-04-27,123.55209914216728,125.73348737793874,123.05406585359005,124.23938751220703,359700
2026-04-28,125.62392082821759,126.15183490401432,123.23335949687649,125.2752914428711,354300
2026-04-29,124.64776713863216,125.4047798425139,122.30701227202618,122.41658020019531,448400
2026-04-30,122.94449532386469,125.58407321741664,121.40058912214994,123.19351196289062,764800
2026-05-01,126.70962950793603,127.97463072857443,117.4362520229959,118.55184173583984,989400
2026-05-04,118.21317963909578,121.27110367417347,116.9979772200526,120.12562561035156,739600
2026-05-05,120.42445055667139,123.22339520339091,120.34476340674007,121.55000305175781,628600
2026-05-06,123.18000030517578,126.38999938964844,121.66999816894531,122.62999725341797,917000
2026-05-07,122.94000244140625,126.47000122070312,122.56999969482422,125.11000061035156,749700
2026-05-08,125.2300033569336,125.86000061035156,120.38999938964844,120.98999786376953,794900
2026-05-11,121.22000122070312,121.22000122070312,119.44000244140625,119.95999908447266,706100
2026-05-12,120.44999694824219,120.86000061035156,117.13999938964844,118.05000305175781,696600
2026-05-13,118.0,118.75,116.43000030517578,117.87999725341797,679500
2026-05-14,118.7300033569336,120.16000366210938,117.04000091552734,117.98999786376953,531000
2026-05-15,117.91000366210938,117.91999816894531,114.47000122070312,114.66999816894531,447000
2026-05-18,115.5999984741211,117.31999969482422,115.16999816894531,115.80999755859375,433100
2026-05-19,115.88999938964844,116.04000091552734,112.44999694824219,113.61000061035156,575800
2026-05-20,114.06999969482422,115.44999694824219,111.55000305175781,115.26000213623047,562600
2026-05-21,116.5,116.5,112.7699966430664,115.51000213623047,345600
2026-05-22,115.80000305175781,116.80000305175781,114.70999908447266,116.2300033569336,405800
2026-05-26,116.19999694824219,116.97000122070312,115.37000274658203,116.37999725341797,344500
2026-05-27,116.94000244140625,118.11000061035156,114.7300033569336,115.30000305175781,464000
2026-05-28,114.80999755859375,116.33999633789062,113.3499984741211,115.98999786376953,510100
2026-05-29,115.05999755859375,117.26000213623047,113.75,115.8499984741211,559600
2026-06-01,114.69000244140625,115.12999725341797,112.02999877929688,112.37999725341797,706800
2026-06-02,111.94999694824219,113.05000305175781,111.23999786376953,112.18000030517578,452400
2026-06-03,111.69000244140625,114.0199966430664,111.69000244140625,112.52999877929688,372600
2026-06-04,114.94999694824219,115.76000213623047,111.54000091552734,112.55000305175781,337600
2026-06-05,113.08999633789062,114.58999633789062,111.9800033569336,113.36000061035156,466300
2026-06-08,112.26000213623047,112.63999938964844,110.94999694824219,111.94000244140625,422200
2026-06-09,113.27999877929688,116.1500015258789,112.66999816894531,115.9000015258789,444400
2026-06-10,116.1500015258789,116.55000305175781,113.37000274658203,114.66999816894531,496800
2026-06-11,115.11000061035156,117.01000213623047,114.26000213623047,116.58000183105469,395200
2026-06-12,117.9000015258789,118.46499633789062,116.37889862060547,117.72000122070312,256256
