Date,Open,High,Low,Close,Volume
2023-06-12,110.32293464376157,111.19835697177103,109.9573747201299,111.0059585571289,353000
2023-06-13,111.31381287819178,111.96797783650442,110.3999092970995,110.83280944824219,340600
2023-06-14,111.21760623797566,111.55430714856459,110.00547562032612,110.78470611572266,225200
2023-06-15,110.63078951378702,111.97760059316519,110.58268623470819,111.64089965820312,362600
2023-06-16,111.25609402942548,112.75682237161875,110.97711116128164,112.69910430908203,975300
2023-06-20,112.43935080762263,112.50669098924244,111.31380462646484,111.31380462646484,297000
2023-06-21,110.76546213036721,110.88090558835343,109.11080926354511,109.30321502685547,317800
2023-06-22,109.62067424467978,109.7264955820822,108.08146480000309,109.71688079833984,266200
2023-06-23,108.61058359955739,109.40905111099394,107.81211608812085,108.54324340820312,366000
2023-06-26,108.76448008614898,110.02471391118388,108.76448008614898,109.29358673095703,142300
2023-06-27,109.50523422525207,110.45761888844028,108.92803162148738,110.36141967773438,218300
2023-06-28,110.4479902945496,110.4479902945496,108.20652019226185,109.20700073242188,204800
2023-06-29,109.12043591353498,110.97710940421138,108.27387253843727,110.41914367675781,225900
2023-06-30,110.84243841224962,111.86216339802276,110.47687108562882,111.45812225341797,279800
2023-07-03,111.02520912022894,112.57403332715113,111.02520912022894,112.11227416992188,85700
2023-07-05,111.2272263100791,111.2272263100791,108.47588633794835,108.6490478515625,384200
2023-07-06,107.98527198550394,108.68754023538193,107.38882507929975,108.19691467285156,277700
2023-07-07,108.37006396940184,110.94824240327603,108.31233857239603,109.46675109863281,333400
2023-07-10,109.00499442816958,110.91939335472682,108.71639677529014,110.12092590332031,248000
2023-07-11,109.96700155164797,111.1695101237359,109.06272009631815,111.12141418457031,226700
2023-07-12,112.15076565467834,113.08391351776963,111.37153507833304,112.42974853515625,199400
2023-07-13,112.41051322769236,112.910760963347,112.1315303250255,112.56443786621094,190200
2023-07-14,113.21858729804248,114.3248892919281,112.26619524240341,113.85350799560547,271600
2023-07-17,113.901608790538,114.99829597658342,112.70872239053817,114.72893524169922,234200
2023-07-18,114.48844594179518,115.79677594401473,114.19021880483534,114.5557861328125,189100
2023-07-19,114.23831743764053,114.87324550384733,113.81503206016934,114.58464050292969,247200
2023-07-20,115.22917239852205,115.65245773575094,114.34412791116105,114.79627227783203,175800
2023-07-21,115.10412706121498,115.4889312891488,114.35376285348565,115.28690338134766,184300
2023-07-24,115.46005920763793,115.91220360263762,114.19983257951267,115.18108367919922,163400
2023-07-25,115.13297461841519,116.51826676509069,114.76741467505558,115.97953796386719,250700
2023-07-26,115.98920870280928,116.22087615837353,114.69571673304294,115.78649139404297,306900
2023-07-27,115.89266517527358,116.58767485454675,114.61848321813113,115.00460052490234,407800
2023-07-28,118.23831895027517,122.58212207343301,117.64949171552556,119.4835433959961,513000
2023-07-31,119.23255838755149,119.62833062613754,116.63593458410192,117.24406433105469,746500
2023-08-01,117.03171151335569,118.24797849712147,116.5587216614483,118.1900634765625,365300
2023-08-02,117.22477436702148,118.08388154374163,115.81545239886735,117.99700164794922,329200
2023-08-03,117.30197759067782,118.46998437438043,116.52975040421455,116.61662292480469,195900
2023-08-04,116.43323498490459,117.89081698819571,116.29809502916336,116.4525375366211,116500
2023-08-07,116.539426706277,117.43714640633715,116.32706179761693,117.07998657226562,140300
2023-08-08,115.9119686703386,117.18615055689943,115.55480889255898,116.9158706665039,270100
2023-08-09,116.91588728463365,119.10709159142796,116.33670759194904,117.60124206542969,287500
2023-08-10,117.5722832458952,119.28084269949765,117.5722832458952,117.98735809326172,216000
2023-08-11,117.29233942455933,118.94298372960004,117.29233942455933,118.35415649414062,226500
2023-08-14,117.79428541805788,118.72096252441406,117.35990805602609,118.72096252441406,145700
2023-08-15,118.37346063529799,118.6630504602438,117.74602828887402,117.85220336914062,249000
2023-08-16,117.5047040691571,118.88506846613971,117.27302926695963,117.32129669189453,291100
2023-08-17,117.72673146110805,118.40243867291203,117.39853649661903,117.41783905029297,186600
2023-08-18,117.16685235814124,119.1360440823842,117.16685235814124,119.01055908203125,443100
2023-08-21,118.87541361000102,120.13994060696739,118.78853371795883,119.4835433959961,358800
2023-08-22,119.57042216370789,121.34655144459086,118.49895014757142,118.6823501586914,429600
2023-08-23,118.7885312290575,119.27117601040692,118.06456405703335,119.1070785522461,305000
2023-08-24,119.20360046165038,121.10522198957945,118.33483842292966,120.76737213134766,278400
2023-08-25,121.21140789758252,123.24816942714405,120.64189060090382,123.11302947998047,493000
2023-08-28,123.19991484093003,125.08223406896586,123.19991484093003,124.91813659667969,331900
2023-08-29,125.2946173413664,127.37964681699768,124.90849258894215,127.2445068359375,472400
2023-08-30,127.7753889970742,128.63449621483008,127.12864668520417,128.27734375,298900
2023-08-31,128.65378802476235,129.0881653696092,127.64989338935744,127.95877838134766,305800
2023-09-01,128.48005469445837,129.14609216174586,127.92018494570092,127.94914245605469,252000
2023-09-05,127.10931616019016,127.39890596028071,122.939273117993,123.14198303222656,325300
2023-09-06,123.35435957766143,123.56671710464039,121.81954527524937,122.02226257324219,291100
2023-09-07,121.90641707792996,122.75586922319013,120.7963326323069,121.00869750976562,328600
2023-09-08,121.15349629318462,122.27322836758205,120.77703394911717,120.96043395996094,238800
2023-09-11,122.58211525615182,123.48948977030165,122.02225292626916,122.60142517089844,333500
2023-09-12,121.73268738421739,122.87172955032656,121.06663511962672,122.13810729980469,258000
2023-09-13,121.41410590959278,122.19598800786005,120.76736374523405,121.01834106445312,279300
2023-09-14,121.63613266327725,122.88135700925572,121.63613266327725,122.36009979248047,217900
2023-09-15,122.09948930636727,122.78484409398824,120.8253072260088,121.55892944335938,589200
2023-09-18,121.97398608311462,121.97398608311462,120.58396679774475,121.27897644042969,175100
2023-09-19,121.32724871079844,121.32724871079844,119.7538219944691,120.96043395996094,218600
2023-09-20,121.47204622557736,121.72302359708121,120.2364766498286,120.30404663085938,206200
2023-09-21,120.01444545779763,120.03374800740987,117.94872651429053,117.9776840209961,335700
2023-09-22,118.08388775742861,118.63410257781541,117.87152285051164,118.42173767089844,341200
2023-09-25,117.7556733807471,119.82139248538923,117.25372604135627,119.7345199584961,258800
2023-09-26,119.24221396331276,119.90826609288796,118.95263152427002,119.30978393554688,547000
2023-09-27,119.7345215441092,120.130286446155,118.60513449209238,119.2325668334961,362400
2023-09-28,119.56077415880812,121.27898852184504,118.98160185373365,121.1148910522461,219300
2023-09-29,122.09947311502151,122.42767539159397,120.45848382588365,120.6998062133789,330900
2023-10-02,120.20751791833786,121.12454749681847,119.68626062800243,120.70947265625,244100
2023-10-03,119.71521017927378,120.96043461818644,118.23831830380705,118.60513305664062,236300
2023-10-04,119.26154096613664,120.33301308264014,118.08388639739762,119.91793823242188,208200
2023-10-05,119.65729977912974,120.59363188391382,118.53756765542609,119.45458984375,466700
2023-10-06,119.31944873185724,122.29254248446563,119.10708384030303,122.02226257324219,491700
2023-10-09,121.45273985524017,122.80414679795139,121.32725485572051,122.53386688232422,275700
2023-10-10,122.82345065071607,124.14590009712616,122.11879334387909,122.14775085449219,322000
2023-10-11,123.1033706665039,123.26746811655187,122.25391854457223,123.1033706665039,212900
2023-10-12,122.80415183788968,122.97790427143451,120.71912263535175,121.0666275024414,189300
2023-10-13,121.62649932106444,122.27324163725763,121.04732698768882,121.59754180908203,324900
2023-10-16,122.93929125115677,123.00686123253432,121.79059420316273,122.31185150146484,275200
2023-10-17,121.63615301588416,123.88527234319643,121.63615301588416,123.05513000488281,314400
2023-10-18,122.46628968040957,123.23851691314512,121.89676500786375,122.37940979003906,287300
2023-10-19,121.70370985945581,123.04546176273765,121.0376577043825,121.36585998535156,443900
2023-10-20,121.5589071868813,122.08981935839807,117.69774918188493,117.9776840209961,446500
2023-10-23,117.49505685595796,118.88507630246588,117.00275707455714,117.2826919555664,379000
2023-10-24,117.89080036822205,119.47387451050561,117.49503551493825,119.05879974365234,312100
2023-10-25,118.57456478321305,119.88205053938309,118.05156900291749,118.5164566040039,431300
2023-10-26,117.44141263972791,121.44135246402949,117.44141263972791,119.54307556152344,576000
2023-10-27,119.58181419956955,119.94015782086082,116.56975044747777,117.35424041748047,364000
2023-10-30,118.08062663343416,118.4680317477671,117.0443222013479,118.32275390625,283100
2023-10-31,118.65204893878834,119.02007972748278,117.99346247171451,118.41960144042969,422900
2023-11-01,118.26464547425135,119.54307717643965,117.78039092964764,119.05882263183594,360500
2023-11-02,119.82393753491263,120.37598738258195,119.10724292668908,119.68834686279297,384300
2023-11-03,120.51157663196489,122.00308139681017,120.51157663196489,121.40260314941406,278000
2023-11-06,121.32511762035035,121.7706382570684,120.8214961980398,121.24764251708984,173500
2023-11-07,120.69561059020047,121.05395423969588,120.25977704767764,120.62781524658203,205000
2023-11-08,120.94740023906827,121.53819131521276,120.49220721978558,121.17984771728516,175800
2023-11-09,121.73191177707123,121.73191177707123,120.16292436681583,120.47284698486328,118600
2023-11-10,120.32755920226418,121.82875114673432,119.98858252132696,121.76095581054688,195600
2023-11-13,121.44136268053566,121.5285323470718,120.45348659100293,120.60844421386719,183100
2023-11-14,121.98371434677951,123.83357021629412,121.36386913343608,123.82388305664062,267400
2023-11-15,123.79483768270165,124.74397988884898,123.33963720572989,123.68830108642578,388600
2023-11-16,123.63018225230408,124.56962982804686,122.84568489375135,123.53333282470703,217000
2023-11-17,124.51152524922635,125.01515410991232,123.5914445767463,123.9013671875,162700
2023-11-20,123.43648091454516,123.6301871665767,122.44860489116716,123.31057739257812,213900
2023-11-21,123.44615504617012,124.25970644056609,123.19434063967408,123.88198852539062,160600
2023-11-22,124.40498620938287,125.13136800676534,123.34931487730645,124.5212173461914,174800
2023-11-24,124.90862165558492,124.90862165558492,124.06602345517848,124.48247528076172,65900
2023-11-27,123.79481793981684,124.25970550298354,122.85536304382997,123.00064086914062,367500
2023-11-28,123.00063818205517,123.01032534063415,121.53818758038103,121.65441131591797,218000
2023-11-29,121.68346835701487,122.41953725501332,120.98614070513605,121.4219741821289,331800
2023-11-30,121.49945624960122,123.12655173420484,120.879611054432,122.89411163330078,301000
2023-12-01,122.43892176614067,124.49215638137169,122.43892176614067,124.06602478027344,218300
2023-12-04,123.43646825089567,124.8214437961348,122.89410557912561,124.37592315673828,192000
2023-12-05,124.21127806681955,124.6374243872842,121.91590909859478,122.02244567871094,178000
2023-12-06,122.40984696950045,123.29119367065105,121.91590533051344,122.3904800415039,179500
2023-12-07,122.26457897811483,123.10718450188428,122.0224517184367,122.50670623779297,254000
2023-12-08,122.38080955024061,123.48490932483753,121.66411489056881,123.31057739257812,265800
2023-12-11,123.25246079430477,123.65923281208454,122.36142687408662,123.55269622802734,338000
2023-12-12,123.6301827914491,124.06601630124297,122.69072782247173,123.46553802490234,210300
2023-12-13,123.17498677043272,124.92799325376262,123.17498677043272,124.54058074951172,425000
2023-12-14,125.01514938630581,125.91585570519116,122.88442505238625,123.38805389404297,412900
2023-12-15,123.15562026534607,124.53090140906804,122.0030920759156,122.01277923583984,713000
2023-12-18,122.7197829699494,123.20403750335895,121.91591867109649,123.04907989501953,240500
2023-12-19,123.68829501618633,124.0950744497936,122.06119944917108,122.2549057006836,659100
2023-12-20,122.05151063829354,122.94254460492192,121.50914791967111,121.61568450927734,346400
2023-12-21,122.26458682357395,122.26458682357395,120.91835976450997,121.94498443603516,421900
2023-12-22,122.41955104807825,123.03939627755607,122.14836968382394,122.29364013671875,312200
2023-12-26,122.16773575790391,122.8747506432993,121.63505280389793,121.86750030517578,274700
2023-12-27,122.1483674460001,122.48734414510773,121.09268870976447,121.3348159790039,283100
2023-12-28,121.0442736769447,121.8384508637691,120.48253661112938,121.25733947753906,343600
2023-12-29,121.24766326207607,121.41230804473831,119.66898861320153,119.72710418701172,313500
2024-01-02,118.74890465167896,120.19198118193904,118.4389820266069,119.0103988647461,313100
2024-01-03,121.20890647105196,123.25246111360688,119.27188841283024,121.41229248046875,531700
2024-01-04,121.23794945881339,121.95464400577458,120.22101211570532,120.30818176269531,353300
2024-01-05,119.88205394447617,120.45347814976842,119.11693087689318,120.28882598876953,423000
2024-01-08,120.16291594190298,121.21859463473278,118.51645353442673,120.43409729003906,352400
2024-01-09,119.8142651104998,120.71497890842888,119.09757041413702,120.70529174804688,250300
2024-01-10,120.5406277049511,121.4703954463117,120.31787477572925,121.24764251708984,279600
2024-01-11,121.43167304106987,122.97160641257193,121.0055340450386,122.84569549560547,323100
2024-01-12,123.86262311015058,123.94010560835483,121.9546590794131,122.44860076904297,231700
2024-01-16,121.91592895752716,122.82632992167458,121.55758530161769,122.81664276123047,257500
2024-01-17,121.97404234594728,123.26215387467808,121.92561393373273,122.70042419433594,336900
2024-01-18,123.31058632417547,125.91587094774778,122.33239000069315,125.07327270507812,444200
2024-01-19,125.62532832931079,127.32021934154592,124.49215961910426,126.68099975585938,418000
2024-01-22,126.77782467019193,127.65917142422897,126.44853515053244,127.05870056152344,266200
2024-01-23,127.64951188609223,127.69794030037075,126.22580222031152,127.6785659790039,217800
2024-01-24,127.95941976328007,128.1240645397181,126.42917358557357,126.66162109375,294400
2024-01-25,127.87224954144052,128.2112336225098,126.27421550960058,127.11681365966797,332300
2024-01-26,127.53324561805019,128.41459226908523,127.2620643066968,127.55261993408203,219900
2024-01-29,126.9230889554588,128.41458609620628,126.38072635882335,128.08529663085938,187800
2024-01-30,127.87222349957082,128.89884052581255,127.48482586719476,128.08529663085938,228400
2024-01-31,128.6002223728795,128.9888396442922,125.48164845004577,126.18114471435547,537500
2024-02-01,126.7446234697633,127.37610612672992,125.9188247729,126.78347778320312,298800
2024-02-02,126.25888510375799,126.98752590812718,125.02504919090698,126.3948974609375,344800
2024-02-05,125.45252075117756,127.7064419292571,124.4032762146761,126.9292221069336,319500
2024-02-06,126.76406363533194,127.65786123075873,125.61767590127417,127.39556121826172,369700
2024-02-07,127.66758565224141,128.64881658304117,125.68567439448216,128.04647827148438,393000
2024-02-08,127.89103487043491,130.9998993735527,127.79387683236689,128.35736083984375,620700
2024-02-09,128.3476677695435,135.24547429687428,127.76474911328785,135.00259399414062,650900
2024-02-12,135.19685465206098,136.46954468413216,133.59383624109773,133.6909942626953,491300
2024-02-13,132.79721865694546,133.41899155451992,131.13591108923504,132.05885314941406,275900
2024-02-14,132.37944687307478,133.5452839390653,131.32049253489302,133.26353454589844,335000
2024-02-15,133.26354322870253,133.8853161197666,130.73759734435762,131.19419860839844,471400
2024-02-16,131.51477747504006,134.06988214666194,131.19417380404235,133.58412170410156,453900
2024-02-20,133.2343951113686,136.14895823746613,133.0498037415049,135.71177673339844,373000
2024-02-21,135.11915707414406,136.11982262644284,135.03172373250294,136.01295471191406,276300
2024-02-22,136.4695496025818,138.36401249814983,136.08094715065158,137.44107055664062,295700
2024-02-23,137.92684167751443,138.00456513874505,136.59586261149656,137.33421325683594,190300
2024-02-26,137.47021310589366,138.01426246079586,136.79015141226589,137.8782501220703,199200
2024-02-27,137.87823606201974,138.13082614411428,135.81861662156606,136.3140869140625,244600
2024-02-28,135.67290467799532,137.21763436808848,135.3620256598198,136.41127014160156,189600
2024-02-29,136.62501092668225,137.59653198323437,135.84779111659356,136.45985412597656,250600
2024-03-01,135.89636538153738,136.78043824566248,135.5854715386809,136.294677734375,151400
2024-03-04,136.68327855712852,138.0725463362649,136.55697609566792,137.9171142578125,260300
2024-03-05,138.21828615058587,139.13151819196344,137.7033812462743,138.46116638183594,190200
2024-03-06,138.85951723507586,139.54930380593856,138.42233566233267,138.99554443359375,184000
2024-03-07,140.38476486062655,141.00653762067319,139.7435575325132,140.53048706054688,250100
2024-03-08,140.58881247786712,140.9385606359244,138.89836057655117,139.0149383544922,185200
2024-03-11,138.72349095328647,139.29669966708138,137.9365612363938,138.6749267578125,226700
2024-03-12,138.73318637825068,138.78176538770967,137.45077168484818,138.3542938232422,242200
2024-03-13,138.9274874603586,138.9274874603586,136.91643209967154,137.139892578125,336800
2024-03-14,137.33421990117986,137.5868100442241,136.36269882514554,136.9164581298828,235200
2024-03-15,136.0517998322653,138.35431477607804,135.76035537983867,136.98446655273438,599500
2024-03-18,136.91644460546308,137.27591744856747,134.9734026453255,135.29400634765625,299700
2024-03-19,134.9248171938589,136.32380955657803,134.9248171938589,135.536865234375,253000
2024-03-20,135.6534968065034,136.08096846512183,135.1774461277264,135.9838104248047,220000
2024-03-21,136.31411913042012,137.56738961386023,135.33288818521672,137.1204833984375,255800
2024-03-22,137.96566942097775,138.39314096328917,137.03301771432692,137.55763244628906,276000
2024-03-25,137.17878514196465,139.94762638401343,137.14964069303667,138.888671875,316300
2024-03-26,138.7623528695866,140.20019986781864,138.55832692713028,139.12181091308594,314200
2024-03-27,139.57842625891035,141.01627324960145,139.57842625891035,140.5402374267578,218200
2024-03-28,140.69566694081686,141.21057184317644,139.55897441755064,139.79214477539062,247800
2024-04-01,139.69498275629263,139.69498275629263,138.07254464302545,138.23770141601562,204400
2024-04-02,137.80051669276568,137.80051669276568,136.39181439560318,136.62498474121094,202600
2024-04-03,136.66386346242072,137.16905855601934,135.886643662477,136.86788940429688,258700
2024-04-04,137.79082770836482,138.68462526566978,136.95531904023974,137.71310424804688,403600
2024-04-05,137.35365632292107,138.69434534542057,136.93589454599896,137.6936798095703,288300
2024-04-08,137.6353754876347,138.3251619062476,136.39182981890286,136.50840759277344,312500
2024-04-09,136.42095479960858,137.08159668050206,135.39114507938174,136.3140869140625,242600
2024-04-10,135.02198614707606,136.2266775391274,134.50708119646376,135.43002319335938,200700
2024-04-11,135.2939969887801,136.05178211487575,134.5070674212371,135.16770935058594,265300
2024-04-12,134.23504002650498,134.99282513721704,132.08798715423154,133.29266357421875,299200
2024-04-15,134.66251781624504,135.82833997705987,133.90473267050376,134.26419067382812,319600
2024-04-16,133.86586195888154,135.4203013711966,133.44811507605868,134.64308166503906,281700
2024-04-17,134.92485214373025,135.50775589636643,134.4099471579958,134.45851135253906,565400
2024-04-18,134.44877343666178,135.46887332130814,134.28361666664966,135.1482696533203,246600
2024-04-19,135.09972514911323,135.9352339088312,134.81799054578042,135.3717498779297,276600
2024-04-22,135.57574676552883,137.1301713362783,135.28428752594058,136.32382202148438,298800
2024-04-23,135.78949299276147,137.13990657658505,135.54661274513685,136.15866088867188,417200
2024-04-24,136.36330826881738,137.28895835479415,136.06125543875743,136.42176818847656,559200
2024-04-25,136.25608912785975,137.6299563309936,135.3596692495126,136.58737182617188,694400
2024-04-26,138.36073105493026,144.70388316147535,138.2632879732938,139.65664672851562,489500
2024-04-29,141.18641384576117,144.2264628084988,140.66999817879426,142.6284942626953,676700
2024-04-30,142.00489424371338,142.35566854502932,140.36794254832975,140.67974853515625,585100
2024-05-01,141.2741247498313,143.43723060207003,140.87462887898343,141.6541290283203,359600
2024-05-02,142.02439483195232,142.96953644520997,141.56643900417882,142.1802978515625,356500
2024-05-03,143.33976921113882,143.35926080100958,141.12794209420005,143.04745483398438,303300
2024-05-06,143.97312732609103,145.25930484115804,143.38851334738442,145.22032165527344,260200
2024-05-07,144.51877476610764,146.52597749323783,144.51877476610764,145.8828887939453,392900
2024-05-08,145.88287597009642,147.0033970467687,145.64902149971218,146.92544555664062,223500
2024-05-09,147.13008393869177,147.8413709100011,144.82082843851902,145.25929260253906,299100
2024-05-10,145.13262025255216,145.18134179717063,144.29466023538959,144.68441772460938,186300
2024-05-13,144.72341108332498,145.6490611203431,143.0962123120397,144.080322265625,167500
2024-05-14,144.49928507792563,144.5090234397785,143.690555012297,144.10952758789062,137600
2024-05-15,144.16799714533659,144.53824816281193,143.00849281449825,143.5054168701172,211100
2024-05-16,143.5931171809895,144.10953286493412,142.67720563052816,143.75875854492188,235500
2024-05-17,144.06080105741668,144.37259213874773,143.35925253976436,143.88540649414062,169500
2024-05-20,143.80748238942644,144.60647413522753,143.27157510477068,144.37261962890625,163400
2024-05-21,144.14850961965013,144.86953495193305,143.3202879692016,144.78184509277344,280400
2024-05-22,144.2751965381992,145.01571353298542,143.6905676854479,144.9767303466797,283300
2024-05-23,144.85006990865986,145.1326311002017,143.77825531785473,143.9341583251953,171700
2024-05-24,144.6746820401184,145.01571802607805,143.58339067341524,144.294677734375,162300
2024-05-28,143.836724802742,143.9926278204598,142.08286789047202,142.95005798339844,318400
2024-05-29,141.9172294055123,142.9403226442165,140.80644628376453,141.12799072265625,229700
2024-05-30,141.41052828428462,143.21310648226037,141.28385524260108,142.39463806152344,328100
2024-05-31,142.34590711767092,144.041318621011,142.18026577210682,143.9049072265625,358900
2024-06-03,144.69416726211233,144.69416726211233,142.53106134998768,144.36288452148438,266200
2024-06-04,143.86593620254556,144.58697641568443,142.9402863143089,144.39210510253906,287900
2024-06-05,143.93415699679983,144.40185114677604,143.3105598409219,144.1290283203125,229200
2024-06-06,144.21670298010207,144.21670298010207,141.6735930769153,142.21925354003906,197600
2024-06-07,142.0341260854559,142.57977170193118,141.7223200944826,141.81976318359375,179100
2024-06-10,141.11823236928575,142.07311231854575,140.2997638413486,141.85874938964844,125800
2024-06-11,141.19616629951713,142.0048963637283,140.65052068215246,141.7710418701172,147700
2024-06-12,142.49208619477034,142.56028446504888,140.37770193248102,142.09259033203125,221300
2024-06-13,142.1510502401924,142.77464737345872,141.3033518363989,142.09259033203125,232400
2024-06-14,141.37156596501876,141.65414204313348,139.99769849820458,141.040283203125,141500
2024-06-17,141.15721433457145,142.9208246192049,140.8649147375735,142.57980346679688,303800
2024-06-18,142.72593269483835,143.9049287478212,142.7161943322524,142.93055725097656,219900
2024-06-20,142.90134192136517,143.74904045270816,141.9367086883768,142.0731201171875,199900
2024-06-21,142.13156155358197,143.3690174832924,141.5859159092863,143.08645629882812,444100
2024-06-24,143.4469635485069,144.43107334340556,142.91105628683806,142.95977783203125,182900
2024-06-25,143.02795993647584,143.0377131650491,140.79665614899386,141.14743041992188,194500
2024-06-26,140.55310113558045,141.07925524967655,139.29616833273786,140.02694702148438,192400
2024-06-27,140.1828155517578,140.19256878158996,138.6238301546421,140.1828155517578,377300
2024-06-28,140.0951327056182,140.62130164013826,136.49969950140468,137.2012481689453,435100
2024-07-01,137.7566365411792,137.85406476284226,134.84326063403208,134.98941040039062,306400
2024-07-02,134.930951195947,136.899185643609,134.2294025783195,136.80174255371094,259400
2024-07-03,137.2694253537308,137.77608769489387,136.96737264749603,137.6007080078125,143300
2024-07-05,137.3766146283827,137.81507873884485,136.14889727781733,137.28890991210938,207000
2024-07-08,138.019727465646,138.84794925037193,137.8735776766851,137.88331604003906,249300
2024-07-09,137.24998059723927,137.64947651109327,136.1684275546896,136.45098876953125,238400
2024-07-10,137.1427912342902,138.0002429282775,136.96741149746342,137.6689453125,142000
2024-07-11,137.58126568918084,139.62745197757425,137.14280144673384,138.44845581054688,244500
2024-07-12,139.73460255093156,141.76129679642114,139.73460255093156,140.8843536376953,263900
2024-07-15,141.05002056298503,141.956193837872,139.47154340588315,139.7541046142578,319900
2024-07-16,140.1633528436763,141.57618861187552,140.1633528436763,140.8551483154297,178800
2024-07-17,140.64075316908665,142.0341118919519,140.64075316908665,141.14743041992188,242300
2024-07-18,140.90386821584644,143.4762084725293,140.89412985288294,142.53106689453125,434200
2024-07-19,142.8331035452224,142.8331035452224,140.95257383249924,142.19976806640625,251200
2024-07-22,142.248512205413,143.77826785359764,141.52747188439355,143.41775512695312,235700
2024-07-23,144.08029691478612,144.70389402799864,141.93668276735104,142.2971954345703,234500
2024-07-24,142.3264523213691,142.87209798322195,140.21205308009542,140.44590759277344,250600
2024-07-25,139.60532117118015,140.79777835848,138.03166963150022,138.2955780029297,558100
2024-07-26,139.89855967497675,147.87432007213235,139.13617092314783,143.34886169433594,562800
2024-07-29,143.27066227743248,145.00070512899177,141.89249229543964,144.46311950683594,390900
2024-07-30,144.05258512959574,144.5608342758621,142.12706091227471,142.45938110351562,411000
2024-07-31,143.1924622534942,145.48941215296958,142.12707481683992,143.66162109375,280600
2024-08-01,143.56388751848672,146.1638212279078,142.14661231103588,143.7104949951172,335300
2024-08-02,143.2706626945803,143.68117855788788,140.50455386188017,142.4007568359375,213500
2024-08-05,140.19177372348608,140.19177372348608,136.33095585655514,137.5038604736328,448500
2024-08-06,138.13918435319152,142.7917121263533,137.92415011565598,141.65789794921875,476000
2024-08-07,142.71351863316335,143.93529731272562,140.23087091858068,140.35794067382812,353600
2024-08-08,141.19852534854527,142.8601413739707,141.19852534854527,142.273681640625,268600
2024-08-09,142.12708691616425,142.12708691616425,140.2308838444139,140.70004272460938,263200
2024-08-12,140.71958701960284,140.92483749251866,139.5466824314966,140.054931640625,221100
2024-08-13,140.26995040499233,142.01954569055792,139.8692183640081,141.11053466796875,212000
2024-08-14,140.87598685966623,141.54062736485398,140.25043671360459,140.6511688232422,115700
2024-08-15,141.7263035439398,144.0134692768749,141.7263035439398,143.69091796875,277500
2024-08-16,142.8112574093109,143.52477193479024,142.3225459699408,143.40748596191406,250600
2024-08-19,143.01653650230918,144.39469155874292,142.62555836471478,143.65185546875,191200
2024-08-20,143.66163572090477,144.9616101671914,143.66163572090477,144.76612854003906,387200
2024-08-21,144.82477331506968,146.19317455052297,144.13081129301386,145.95858764648438,267300
2024-08-22,146.1931736416752,147.0044216535608,145.31348394271856,145.6262664794922,200400
2024-08-23,146.28111414215468,147.131467288796,146.06607991196887,147.0435028076172,221400
2024-08-26,147.27808563075303,149.22316270583966,146.7502837904236,146.76983642578125,235500
2024-08-27,146.62321074365258,148.1186666577194,146.4570506325663,147.78634643554688,208300
2024-08-28,147.5224086104376,148.538936623209,147.5224086104376,148.11863708496094,249000
2024-08-29,149.10588837840956,149.45776127089994,147.7961450785867,148.84197998046875,187100
2024-08-30,148.76379108574673,149.97580108462319,148.2164365424776,149.7314453125,178500
2024-09-03,148.67581490735162,148.93972329651422,146.34954336691524,146.6525421142578,362400
2024-09-04,146.2224723339692,147.49311017712768,146.2224723339692,147.3269500732422,175800
2024-09-05,147.66907259304693,148.33371309202553,146.5645798008299,147.31719970703125,200600
2024-09-06,146.9848515838682,149.6629806227301,146.9848515838682,148.939697265625,319100
2024-09-09,149.12544950502766,149.6043772788133,148.02095662960824,148.4803466796875,241500
2024-09-10,148.44121305528495,149.3404403457152,148.02092836146767,148.08934020996094,158100
2024-09-11,147.38560462789548,147.47358403097817,145.27438232544125,147.43447875976562,178000
2024-09-12,147.48335555565916,148.57806454072724,146.58412818731162,148.52920532226562,200400
2024-09-13,148.75401548591918,149.55549462674657,148.47055445109223,148.84197998046875,138600
2024-09-16,149.58479366168226,149.71186341092198,148.63670717231366,149.5359344482422,182900
2024-09-17,150.5231135308557,152.05767450947684,148.4411981620449,149.57501220703125,259900
2024-09-18,150.2885297114155,151.97948195392672,149.26224766629488,149.61412048339844,214200
2024-09-19,151.5201058020689,155.2245321204598,151.5201058020689,153.35765075683594,412400
2024-09-20,152.78096256205154,152.78096256205154,150.99227696544378,152.38999938964844,663300
2024-09-23,152.64413901555898,153.36743736156149,151.24643136778755,152.4388885498047,315800
2024-09-24,152.6539129888592,153.53360261442796,152.5073055084099,153.09376525878906,246200
2024-09-25,153.7486153545566,154.30573861662077,152.35089294120183,153.59222412109375,284100
2024-09-26,154.37417652916213,155.4688854139277,154.13958966201668,154.8042449951172,371600
2024-09-27,155.09744791866115,157.90266158994953,154.68693211868234,156.28013610839844,354300
2024-09-30,155.6937051154717,156.79819789228802,155.34183223436244,156.57339477539062,289800
2024-10-01,156.91547599488553,156.91547599488553,155.45912532444558,156.3583526611328,192200
2024-10-02,156.25084899293302,156.49520475484402,154.39375116812636,155.16590881347656,186900
2024-10-03,154.42307461105972,156.83731076228608,153.10354751440676,155.35162353515625,367000
2024-10-04,156.32903970950474,157.82449573222064,155.7328110726232,156.95458984375,350500
2024-10-07,155.79144712681207,156.03580287015131,154.4425986510062,155.1072540283203,223300
2024-10-08,154.7065131414347,155.4298115394373,153.5531611461703,155.08770751953125,205900
2024-10-09,154.77493978776437,156.43655592393026,154.55012175690058,156.09445190429688,152600
2024-10-10,154.4816916598629,155.78166590095645,154.4816916598629,155.62527465820312,168500
2024-10-11,157.3064660526596,158.26433645347558,156.7297900399239,157.90269470214844,194400
2024-10-14,161.26500168837995,163.97245224959045,159.7695459182621,163.4153289794922,469700
2024-10-15,163.54240800657777,165.82957403020615,162.73114520381247,164.87168884277344,397300
2024-10-16,164.89123875307473,165.37995019864655,162.1740043088386,162.29129028320312,330000
2024-10-17,163.21007464638268,164.5198326911605,162.76046845617475,164.0995330810547,238200
2024-10-18,165.28220486003917,165.28220486003917,163.99199957852832,164.82281494140625,171500
2024-10-21,164.66643721782916,164.68598985183766,162.5454313137494,162.5747528076172,217900
2024-10-22,161.97853331620303,162.613852271317,161.0890748476109,162.06649780273438,228500
2024-10-23,162.75071325021858,164.18752638480976,162.40862411749714,163.86497497558594,318100
2024-10-24,164.96263491104682,164.97243006379486,162.8359053646187,163.22793579101562,547300
2024-10-25,165.5506429301697,166.46210050279106,161.3266145463958,165.5408477783203,518900
2024-10-28,166.51109693898178,167.9909874127624,165.39383645811452,165.72706604003906,350000
2024-10-29,165.6584567098737,166.10928794010354,164.29618282133464,165.3350372314453,338100
2024-10-30,164.99203323960487,166.8051234675815,164.76661013936223,165.65846252441406,290300
2024-10-31,165.71726236332717,166.8835285592377,164.511800602721,164.56080627441406,329900
2024-11-01,164.7470311079298,167.57938567105288,164.2765945700034,166.03089904785156,316300
2024-11-04,166.24649215601715,167.16774490614142,164.82540251348084,164.90380859375,191800
2024-11-05,164.39418823784416,166.96192375931884,164.39418823784416,166.9129180908203,206200
2024-11-06,171.65636686685428,171.65636686685428,168.70641117551688,169.70606994628906,264100
2024-11-07,170.72532182060624,171.96019883841325,170.07848290217686,171.22515869140625,412300
2024-11-08,171.21535702617146,174.29272466184403,171.0095541493443,172.25421142578125,309200
2024-11-11,172.80305109831977,174.47893431358193,172.39141544269447,172.6364288330078,189100
2024-11-12,173.12646726649535,173.70471027192264,171.46037909110905,172.19541931152344,179800
2024-11-13,171.9993896484375,172.87163666728088,171.5583685633018,171.9993896484375,168400
2024-11-14,171.65637889220199,172.28361258645606,170.4411220214521,170.62733459472656,198200
2024-11-15,169.51987152643795,170.29410728655165,162.8555040894364,163.16912841796875,620500
2024-11-18,163.07113897218557,164.4726235775407,161.05223068808166,163.3651580810547,384400
2024-11-19,163.1005165746191,164.32558356152833,162.8849035885686,163.57093811035156,287600
2024-11-20,163.66896746747955,165.57027403316428,162.3458889942029,165.3644561767578,221800
2024-11-21,165.32524989622468,166.83452591248917,164.3942019349008,166.49151611328125,205100
2024-11-22,166.78550102159357,168.63781653249123,166.78550102159357,168.08897399902344,241600
2024-11-25,168.61822873869966,170.54893557134125,168.31441450843965,169.0592498779297,270100
2024-11-26,169.41208015284485,169.41208015284485,167.7459918835038,168.60842895507812,140300
2024-11-27,169.22586404114253,170.41173555223975,168.0988083114946,168.3046112060547,167200
2024-11-29,169.1474408135347,170.02949799270758,168.65741403213775,169.51007080078125,117300
2024-12-02,169.52966938718723,169.65708114199288,167.43235525852162,169.31405639648438,170900
2024-12-03,169.99028664377565,169.99028664377565,167.67735964872438,168.9612274169922,160100
2024-12-04,168.46141115590896,169.44146474689205,167.61856446948624,169.14744567871094,173400
2024-12-05,168.5790016500735,169.00043244262315,167.12852661860668,167.68716430664062,245000
2024-12-06,168.17722694028024,169.2062713986826,167.44218663888816,167.73619079589844,209200
2024-12-09,168.13797668383563,170.00988246476282,166.83450372952439,167.38333129882812,301700
2024-12-10,167.31474873040528,167.9517775769901,164.8352143640773,167.50096130371094,287000
2024-12-11,168.4516157508474,170.6273359159199,168.32420399879283,168.87303161621094,418600
2024-12-12,168.24578529682086,169.1572428430024,167.37353826575998,168.2163848876953,178300
2024-12-13,167.5009593612563,167.58916059355795,166.43270455823205,166.80511474609375,153200
2024-12-16,166.74633688839629,167.52057273594318,164.24719694799307,164.28640747070312,236100
2024-12-17,163.57091532576325,163.58072543112786,159.59190069924725,159.8369140625,511900
2024-12-18,160.42498045548814,161.14041541532916,154.7602716927562,155.05429077148438,468600
2024-12-19,155.34829094522857,158.34726752667316,155.07387713324243,155.70111083984375,404700
2024-12-20,155.55409383567164,156.59294816043814,154.32902695185643,155.0248565673828,730200
2024-12-23,154.03504524233003,155.73053403322555,153.82924233044926,155.35812377929688,194900
2024-12-24,155.61291680874774,156.2401505443862,154.77007007450553,156.1715545654297,100500
2024-12-26,155.26010295270436,156.44597449127195,155.26010295270436,155.68153381347656,164500
2024-12-27,154.6720483902693,156.39693714261043,154.4662305781917,154.99545288085938,145000
2024-12-30,153.86840893166374,154.34864055969513,151.90830181151514,153.60379028320312,221700
2024-12-31,154.14283313865855,155.09348635246576,153.06476816802203,153.9664306640625,317100
2025-01-02,154.50544526899088,154.95627650847348,150.38922310762084,151.08506774902344,239400
2025-01-03,150.967461006653,152.61395895139125,149.82080000531155,152.39834594726562,250700
2025-01-06,150.92825644983694,151.55549016417848,148.41932159247074,149.8697967529297,369000
2025-01-07,152.8099524460056,152.94715934907052,149.55618233571022,150.36961364746094,361200
2025-01-08,149.84039419615527,151.1830628417546,149.05634832584286,151.07525634765625,228600
2025-01-10,149.67380144035604,151.22228807240447,149.53659452128502,150.3892364501953,350800
2025-01-13,149.87959178115395,151.61429086251573,149.87959178115395,150.82044982910156,349300
2025-01-14,151.72211554319233,152.34934933219267,150.41864228780673,151.52610778808594,196900
2025-01-15,153.0059656935918,153.7900115770172,151.09486413391397,152.45713806152344,206100
2025-01-16,152.78054436817854,154.0350116916582,152.2121115255971,153.29017639160156,346300
2025-01-17,153.83899910671454,154.79944734957013,152.5747217171077,152.97654724121094,231900
2025-01-21,153.59400049694958,157.0633836408648,153.59400049694958,156.6419677734375,270900
2025-01-22,156.16174421991363,157.54362344855716,155.18169057482152,155.8971405029297,280000
2025-01-23,155.29930636956567,156.62236981086585,154.58385644519683,156.4361572265625,149800
2025-01-24,156.46556533744905,157.26921653989086,154.0840420532797,155.1425018310547,329600
2025-01-27,155.09348331003815,155.75011743220608,153.52539155704252,155.29930114746094,317000
2025-01-28,154.42704949078208,157.15159724174742,154.42704949078208,155.2600860595703,204300
2025-01-29,155.61291457845172,155.65212509823508,153.49599514310032,153.97622680664062,265800
2025-01-30,154.6720768692887,155.5149086664643,153.4568049388864,154.97589111328125,274200
2025-01-31,154.75045154888468,156.21073674071707,153.63319108572594,154.01541137695312,834100
2025-02-03,151.49670519361857,153.62341996252314,151.06547916592677,152.8687744140625,364600
2025-02-04,152.97658673624426,155.2993243001657,152.97658673624426,154.55447387695312,302400
2025-02-05,155.56680214959917,156.92315132969566,155.07537302605425,155.6061248779297,262600
2025-02-06,157.1000465610709,157.1000465610709,152.70666933390916,153.76815795898438,446600
2025-02-07,154.91812350431175,155.1933226339648,139.60518908843227,140.72564697265625,1221500
2025-02-10,141.78711035544322,142.12129352206097,138.48470639401995,140.82391357421875,621900
2025-02-11,139.83124474666104,140.61753433103604,137.8556901038002,139.85089111328125,377300
2025-02-12,138.55351384739762,141.03032057107268,137.53133297854282,139.27099609375,423500
2025-02-13,140.30300099128152,141.31534368657196,139.03512057584868,140.32266235351562,665900
2025-02-14,141.22689417596524,142.81911962723777,140.27352054231486,142.3080291748047,512800
2025-02-18,142.3080350119088,144.7651805608191,141.4332917963858,144.38186645507812,489600
2025-02-19,143.63488862497093,144.9617531188217,143.1139750082088,144.5194549560547,331000
2025-02-20,144.45067143286263,144.8929546251905,143.41866731928027,144.16563415527344,283100
2025-02-21,144.50964123842508,144.86347079347803,142.71100891667461,143.8314666748047,451900
2025-02-24,143.67420452994452,144.76517773223307,141.88541040384698,143.11398315429688,353300
2025-02-25,143.3793614383485,145.7873610696006,143.22210052435642,145.17799377441406,336700
2025-02-26,144.13613543793164,146.6227652496447,144.10665089449034,144.12631225585938,735600
2025-02-27,143.7233423633532,144.65705460178307,142.86826057620084,143.13363647460938,262800
2025-02-28,143.65455331584818,144.4310046691492,142.15078151982524,144.23443603515625,348700
2025-03-03,144.4506545692963,146.2885943969859,143.19259741490004,144.07716369628906,394100
2025-03-04,143.04518692456787,145.41387896963047,142.65204961296442,143.43833923339844,490100
2025-03-05,143.54644673744147,146.2984527664409,143.54644673744147,145.89547729492188,445100
2025-03-06,145.0305485219981,148.9030120941682,144.53911943917907,148.5590057373047,471700
2025-03-07,147.92997950600335,150.7311313223095,146.62277632487553,150.16107177734375,480200
2025-03-10,149.46325521067857,151.36016435752973,147.6646228865031,147.9889678955078,391100
2025-03-11,147.76290385774493,147.9791338698189,144.74553686653798,145.3549041748047,304000
2025-03-12,145.69890235666847,145.69890235666847,143.0648346293028,143.5267791748047,299700
2025-03-13,143.9002588077556,144.67671011222558,141.29567583016868,142.27853393554688,238400
2025-03-14,142.74048587257624,144.3720340117381,142.0623113450195,144.14598083496094,223600
2025-03-17,143.9985523832392,145.46301652973597,143.3597005392626,145.30575561523438,225200
2025-03-18,144.86347189053822,145.00107144092166,143.28106956251574,143.7921600341797,219900
2025-03-19,143.8314663428333,144.93227773224964,142.97638450227305,144.4604949951172,279600
2025-03-20,143.62506440139353,144.8929447997195,141.266195873561,142.71099853515625,332800
2025-03-21,141.5315735327772,142.96655302987472,139.9196867674318,142.3375244140625,601900
2025-03-24,143.25159336230843,145.63993176823914,142.42599601190474,145.4532012939453,463800
2025-03-25,145.94462657089437,146.67193207582238,143.42849685961332,144.6865692138672,325200
2025-03-26,144.5292868819481,146.1509967511721,143.79214330553276,146.01339721679688,630400
2025-03-27,145.73820579296662,147.32060801990121,144.50963310116106,146.7898712158203,312700
2025-03-28,146.73090786413923,147.42874385047818,143.26141929196947,144.41136169433594,239800
2025-03-31,144.06735434534886,146.5343229870739,143.59558661646503,145.8365020751953,372500
2025-04-01,146.3279289386792,147.45820983366664,144.85364168579534,146.54415893554688,240000
2025-04-02,145.46300090804647,148.5393516047407,145.46300090804647,147.9496307373047,247600
2025-04-03,144.24425830925108,147.47787005738485,143.9494128587316,146.12152099609375,352900
2025-04-04,142.73066750752537,145.42370434629547,137.63945428633932,137.7770538330078,531600
2025-04-07,134.00287530876898,139.6837941624517,128.60699371434606,132.3418426513672,629900
2025-04-08,135.025053604175,136.9219625810332,129.02961306087627,131.3688201904297,473800
2025-04-09,130.89704037690942,141.94437131089686,129.06893862699687,141.28585815429688,491800
2025-04-10,137.60014014324574,140.9123672890104,135.21180205228458,138.34710693359375,309000
2025-04-11,138.45524319829693,142.22943044846525,137.3446235232159,141.63970947265625,203000
2025-04-14,143.30073173513014,143.89043766986302,141.3251771111253,143.2908935546875,249300
2025-04-15,143.59557227868376,144.02801723860003,141.30551113998933,141.47259521484375,250700
2025-04-16,141.5905608939007,143.3204010585323,140.12611166033892,142.5144500732422,307700
2025-04-17,142.90756616049867,143.26139568732975,138.29797412661645,141.36448669433594,390600
2025-04-21,140.84359973934292,141.58074347664174,138.68131444271188,140.1359405517578,291600
2025-04-22,142.02300391438817,144.30324204095515,141.12859939074895,143.51695251464844,217800
2025-04-23,145.3352389782031,146.76039538307882,144.69638713943039,145.5121612548828,537000
2025-04-24,145.39422018085207,149.39446063467332,142.9665739929878,148.8637237548828,424500
2025-04-25,148.26416156627027,150.3773006417577,145.04038795490476,146.5048370361328,220500
2025-04-28,147.23215717254052,148.44106852493894,145.73820855180134,147.1338653564453,235200
2025-04-29,147.1928352219858,149.37478157519996,146.4556915890682,147.7235870361328,359900
2025-04-30,146.51467265670706,147.41890036144332,144.68655588487232,147.37957763671875,556200
2025-05-01,146.34446689472773,148.3949671666266,144.87560983167245,146.1768798828125,445300
2025-05-02,150.8200800146687,150.82993276495682,145.69382189987473,149.8441162109375,431600
2025-05-05,149.28220335297306,151.04682352421423,148.74001624656938,149.3314971923828,267600
2025-05-06,148.11893891054953,149.88354394348798,147.30070935640887,148.77943420410156,312000
2025-05-07,149.72583816830937,150.97781448792617,148.48369955760796,149.24278259277344,318400
2025-05-08,149.6370904773431,152.3776743797429,149.0949033979698,151.18482971191406,302500
2025-05-09,151.72702915659627,152.11149701025283,150.77078589758978,151.14540100097656,231600
2025-05-12,153.58035336298764,154.36900960970033,151.52000038825545,153.31419372558594,352500
2025-05-13,154.0930052362217,154.0930052362217,151.02711471213084,151.46087646484375,339400
2025-05-14,151.4411368076829,151.4411368076829,148.82872891175197,150.3173065185547,350100
2025-05-15,150.18915951898913,153.2747551350197,150.18915951898913,152.7522735595703,278100
2025-05-16,152.97900445208893,154.92106425191258,152.39737629987306,154.78305053710938,278600
2025-05-19,154.14226976931747,156.09418224300046,154.09297593545168,155.83787536621094,185400
2025-05-20,157.98696796016725,157.98696796016725,155.6703079013984,156.28150939941406,388100
2025-05-21,154.6351912204993,155.413979709526,153.61980133414392,154.2310028076172,319800
2025-05-22,154.14229666137166,155.02952565627956,153.35364030902645,154.4281768798828,278900
2025-05-23,152.9198641452087,153.964827320536,152.07206127878644,153.72824096679688,260500
2025-05-27,154.80278568952716,156.19279076132077,154.46761164228232,155.91676330566406,352800
2025-05-28,155.91674115297533,156.58708915222178,155.0294972781088,155.16751098632812,364400
2025-05-29,155.59144226540175,156.41952463373346,154.59577287317205,156.0843505859375,232100
2025-05-30,155.99563159879617,156.52796596940533,154.31973126540694,156.15335083007812,335100
2025-06-02,155.30554827866962,156.813861590753,153.05788752213863,154.6844940185547,349600
2025-06-03,153.9648187854225,155.20695724316363,153.78737902995462,154.04368591308594,397800
2025-06-04,154.2704388516904,154.30001214509375,148.15836414730086,148.27667236328125,831900
2025-06-05,149.43008223768163,151.1651140408049,146.9359674396561,150.32717895507812,482400
2025-06-06,152.18050703516937,152.28894746522036,150.05115456510006,151.1355438232422,264700
2025-06-09,150.544055582443,151.007375533086,149.21319719105352,149.44979858398438,388400
2025-06-10,150.001860330608,150.82994268025288,148.7202957176617,150.36660766601562,323500
2025-06-11,150.82994254149838,151.4115707359019,149.4498052933599,149.7652587890625,380800
2025-06-12,149.2624939294629,152.4269567686982,149.2624939294629,152.16079711914062,337200
2025-06-13,150.82995131844777,151.53974052804173,148.5921432536899,149.01605224609375,361200
2025-06-16,149.09491396311157,150.7313581523707,148.97660573756926,149.5385284423828,346200
2025-06-17,148.5231211018251,149.11460199074878,147.01482302363846,147.3302764892578,379700
2025-06-18,147.00497623832817,148.59214167031755,147.00497623832817,147.57675170898438,383200
2025-06-20,148.1583603569541,148.63156312403586,146.87681089594898,148.16822814941406,570500
2025-06-23,147.36973462159207,151.75661565197194,147.36973462159207,151.60873413085938,356500
2025-06-24,152.37767518899636,152.37767518899636,151.0073757093355,151.68759155273438,246600
2025-06-25,151.67773528253588,152.33823056724884,150.60319885109388,151.74673461914062,264700
2025-06-26,152.33824953068293,153.37336004754195,150.94824440925422,152.28895568847656,658200
2025-06-27,152.4663887853865,153.89581975146424,152.04247985366143,153.6099395751953,643100
2025-06-30,153.8169678164779,154.2803028366932,152.41711000476906,154.21128845214844,315500
2025-07-01,154.21127594013436,157.5334879476997,153.74795599987883,156.7546844482422,338300
2025-07-02,156.7645627082632,158.2531403852606,156.399800331021,158.04612731933594,293500
2025-07-03,158.3221432480809,159.07135840752164,157.55320754586447,158.75588989257812,235100
2025-07-07,158.66717993630388,160.0670377135844,158.27285931033134,158.6770477294922,313900
2025-07-08,158.61788810431491,160.2740678475626,157.58279268744894,157.7799530029297,342700
2025-07-09,157.66163784587226,157.7405049770696,155.85760674831414,157.4644775390625,252800
2025-07-10,156.93215349895374,158.08555716392323,156.0843505859375,156.0843505859375,361600
2025-07-11,156.31107345675375,156.31107345675375,154.40845469060778,155.66043090820312,292000
2025-07-14,154.91121519337966,156.6856880276844,154.46760074539523,155.32525634765625,276600
2025-07-15,155.50272082835133,155.7590277372234,151.88477559675442,151.97349548339844,254200
2025-07-16,151.73689710833995,153.4029296552156,151.37214976104823,152.7818603515625,261900
2025-07-17,152.54527396427014,154.19158596606755,152.31852530407468,153.8169708251953,397700
2025-07-18,154.62532225773037,154.9802167953299,152.72268861265445,154.1619873046875,243100
2025-07-21,154.2014214703955,154.44787560553723,153.0381651728625,153.24517822265625,205900
2025-07-22,153.8958183896831,157.09972209739536,153.0282950337299,156.91241455078125,449900
2025-07-23,157.79966646117234,159.5544187621791,156.88284922392322,159.3671112060547,450500
2025-07-24,159.11996916058192,162.4020082574344,157.96333091025235,159.9701385498047,431900
2025-07-25,160.19750774667867,161.22561221674488,158.94202169024894,159.14962768554688,296300
2025-07-28,159.35722424092228,160.12830639187274,156.35198291982778,156.88580322265625,308500
2025-07-29,157.23180681567746,157.7755224517839,155.4227248360997,157.0044403076172,388200
2025-07-30,156.98465159805863,157.11315522177728,153.14900170497543,154.99761962890625,580700
2025-07-31,153.99917438750097,155.55123391765005,153.4060273513415,155.3436279296875,679700
2025-08-01,155.17559628438335,156.31244400829624,139.47712391688526,139.73416137695312,1012300
2025-08-04,141.4838983520282,141.4838983520282,135.51295211602235,137.53952026367188,839000
2025-08-05,137.7471203907678,139.4573546226765,136.1159885271504,138.6170654296875,540800
2025-08-06,138.70603871474566,139.1508915064958,135.97759518556805,136.95626831054688,515300
2025-08-07,138.2018575966745,139.87254051260254,137.32203237332467,138.88397216796875,564000
2025-08-08,139.08167952516152,140.42613304538742,138.9729364064537,139.1409912109375,428700
2025-08-11,139.71437362843554,140.00105182700324,137.60871811175764,138.27105712890625,349500
2025-08-12,138.61705933663222,139.47710899953265,137.6383712108668,137.88551330566406,286100
2025-08-13,138.09311785531034,139.82311250076222,137.65814535952828,139.81321716308594,729900
2025-08-14,138.587417906121,138.587417906121,134.8802860985931,136.75856018066406,875800
2025-08-15,136.7783310639517,137.36158282800585,136.2939270940797,137.13421630859375,770500
2025-08-18,137.30227391230105,137.97450831438334,135.77988510875218,136.31370544433594,529500
2025-08-19,136.6893602194093,138.9136391735608,136.6893602194093,137.9942626953125,333100
2025-08-20,138.3105996295714,139.6352775807112,137.6680211600025,139.56607055664062,519200
2025-08-21,139.02239208429995,140.27786321045522,138.63685097516378,139.0322723388672,270400
2025-08-22,139.64516235050763,141.691506114476,139.5759704085548,139.81321716308594,356500
2025-08-25,139.35848463440877,139.99116778923627,137.3714676366746,137.964599609375,245800
2025-08-26,137.48021659858136,138.55775254977684,136.43232140870543,138.11289978027344,442900
2025-08-27,137.49997281529963,138.96306488334525,137.44066112579765,137.84597778320312,729100
2025-08-28,138.56762766903606,138.56762766903606,135.8292890396428,137.30226135253906,320800
2025-08-29,137.57906986016718,138.27106476072905,136.76845157218256,137.6779327392578,370700
2025-09-02,135.84906508939116,136.94637659553402,134.6133546133004,134.85061645507812,310600
2025-09-03,134.524378954303,134.62322673580624,132.90312751096604,133.67420959472656,382300
2025-09-04,134.79131718640096,136.89695777432672,133.49627981726408,136.877197265625,401800
2025-09-05,137.43077574465525,139.21020178510477,136.0566663464884,137.03533935546875,440800
2025-09-08,137.005687591299,138.3995726215184,136.1060867490136,136.71900939941406,616100
2025-09-09,136.679450849055,137.88550540934673,133.55558641382353,135.48329162597656,637100
2025-09-10,134.57380522187424,135.88860284868082,133.3084390260997,134.6924285888672,685100
2025-09-11,135.1867099180789,136.69921815319276,134.31676501994897,135.53271484375,477500
2025-09-12,135.05820672958419,135.4832989752159,133.67421703664533,133.68409729003906,261300
2025-09-15,134.41564821558472,134.6133588811563,133.09097016346266,133.30845642089844,298000
2025-09-16,133.2491251648004,133.8719280705481,132.56702565416762,133.66433715820312,474800
2025-09-17,133.8719349467548,135.50308190645822,132.6560000017811,133.11073303222656,377400
2025-09-18,133.35786944137865,133.9608967611341,132.53737095397892,132.9624481201172,254800
2025-09-19,133.12062346030297,133.5555959668464,131.81570594067267,132.90313720703125,877200
2025-09-22,132.58679434770661,133.39742770900972,131.1533731265575,131.2028045654297,402100
2025-09-23,131.48947627590215,132.41873297707602,130.46137178622766,130.51080322265625,319700
2025-09-24,130.49103409799787,131.7860563410793,129.83857530726212,129.9967498779297,353300
2025-09-25,129.99672785189574,131.00507171360582,128.78079310017034,129.3245086669922,388700
2025-09-26,129.82867757462216,130.91609366176084,129.4629121280084,130.77769470214844,274400
2025-09-29,130.88643819323417,131.16323611324975,129.85833378808422,130.7579345703125,540600
2025-09-30,130.20434429084327,132.23089734514227,130.20434429084327,132.13204956054688,310400
2025-10-01,131.8058293753404,132.82405364216999,130.7974853623518,132.6065673828125,310100
2025-10-02,132.1320554290962,132.85370613455356,131.44006056877018,131.65753173828125,398500
2025-10-03,130.95564105191096,132.05295244435536,130.9160898735346,131.6970672607422,402000
2025-10-06,131.37085466398543,131.67730845586786,129.90777764901935,130.37240600585938,447100
2025-10-07,130.59976556964224,130.99518687665005,128.32605534345748,129.09713745117188,438800
2025-10-08,129.68039176507327,130.50090532374472,128.77091067319023,130.10548400878906,361300
2025-10-09,130.19444872342635,131.32141603944422,128.71159619791044,129.11691284179688,554200
2025-10-10,129.4431533949871,130.50091377740966,128.40515352054297,129.43325805664062,426000
2025-10-13,129.49258620457584,130.8370398948493,128.67207258406597,128.73138427734375,311400
2025-10-14,128.55342412283795,129.56176808327064,127.56485575341351,128.31617736816406,337400
2025-10-15,128.3161756767913,128.89942738681822,126.39835065189028,126.63561248779297,438300
2025-10-16,126.97172413317051,128.01960419415852,126.38846487166605,127.6834945678711,352700
2025-10-17,127.68349986264782,128.61275658450555,127.37704606806854,127.86143493652344,339700
2025-10-20,128.12834444492697,128.6028530293001,126.55652438869629,128.51388549804688,240500
2025-10-21,129.11692867987182,130.263671727181,127.64395622680965,129.077392578125,311600
2025-10-22,129.1564481138655,130.59976453326686,128.49410913348765,128.5731964111328,357500
2025-10-23,128.73197123448563,130.50805690169727,128.65259098954968,129.75396728515625,378600
2025-10-24,129.73411268037526,129.87302431778892,127.54127703952456,127.87864685058594,489300
2025-10-27,128.1366224648553,128.89071205489756,127.45198112404552,127.7794189453125,521700
2025-10-28,127.74964944095181,128.10685294985234,126.47959588491281,127.10470581054688,413500
2025-10-29,126.29107194406481,126.50936382227088,122.46106236313027,123.34414672851562,651100
2025-10-30,123.07624728804052,124.54474389238906,122.08401698830151,123.39376068115234,702600
2025-10-31,114.39423553008093,117.18240033192052,102.42794018569283,115.108642578125,2758200
2025-11-03,115.18801418737364,115.18801418737364,107.44862223530946,112.24109649658203,1661000
2025-11-04,113.47145606328911,115.0987131260131,111.65567282386979,113.29285430908203,1029100
2025-11-05,113.44168707726934,115.13839990799084,111.8938027289756,114.67205047607422,896900
2025-11-06,114.12632587945619,116.05125508565277,112.91581127124762,115.24755096435547,880300
2025-11-07,115.32692576494694,116.01155949259733,113.7988902652183,115.31700134277344,697200
2025-11-10,115.08879219606841,115.86273063108003,113.11425598749823,115.47576141357422,514000
2025-11-11,116.05125494853503,118.58144524090463,116.05125494853503,117.35107421875,484800
2025-11-12,117.42052991643766,118.74019803055835,116.99387815530137,117.24193572998047,547500
2025-11-13,117.3808436819808,120.93302228660532,117.3808436819808,119.26607513427734,679400
2025-11-14,118.8394216459119,119.75227929014665,117.47014653473461,117.68843841552734,521200
2025-11-17,117.56937122538191,118.56160156840677,116.65652112662708,118.41276550292969,820200
2025-11-18,118.73028226930452,119.1767828797841,117.14270772067383,118.38299560546875,817400
2025-11-19,118.5814455351289,118.5814455351289,116.79542796312874,117.08317565917969,598900
2025-11-20,117.08318073043249,118.68067219177061,116.45807833821543,117.65867614746094,507400
2025-11-21,117.21216086173891,121.29022793939164,117.21216086173891,120.57582092285156,509100
2025-11-24,119.91103668470342,121.44899676039621,119.50422617630296,120.5262222290039,740000
2025-11-25,121.45891525209124,123.11593804438662,121.45891525209124,122.48091125488281,543600
2025-11-26,122.06416725085363,123.55251268958358,122.06416725085363,122.84803009033203,538000
2025-11-28,122.66943052847252,125.10039933060551,122.66943052847252,123.78073120117188,315700
2025-12-01,123.90971816318398,123.9890984046682,122.07409360703122,122.32215118408203,536800
2025-12-02,122.80834273936739,122.8976474041654,119.86142506313116,120.65520477294922,325400
2025-12-03,120.50636459439258,123.29453683156571,120.46668204485655,121.11162567138672,543100
2025-12-04,121.25053931737644,123.11593712141129,120.9826404679227,121.07193756103516,708000
2025-12-05,121.0421717426921,122.55036603254122,119.6828210814482,120.96279907226562,537000
2025-12-08,119.98048683677486,121.15131890116776,118.37307858523162,119.13709259033203,496600
2025-12-09,118.67074319979267,118.91880077653559,114.46368881786525,114.82089233398438,640300
2025-12-10,115.2673979458709,116.88473826129054,114.23547747342825,116.25962829589844,734700
2025-12-11,117.04347933154511,117.74796190032998,116.24969967395411,117.09309387207031,389700
2025-12-12,117.5991381446397,120.69489957224027,116.73590258212603,120.5262222290039,656400
2025-12-15,120.53613763713133,121.508519071394,119.54390735802136,121.37953186035156,588600
2025-12-16,121.71688801826957,122.88772006482098,118.59136108661724,121.87564849853516,644800
2025-12-17,121.16124681536517,123.63189822994175,119.14702044648554,122.66943359375,567300
2025-12-18,122.70911937736454,123.15562755440962,121.08186229106413,121.66728210449219,457100
2025-12-19,122.38168448192317,123.36399795279324,120.31785116207733,120.44683837890625,1300400
2025-12-22,120.44683702770696,122.73888662712453,120.1293236305144,121.78634643554688,527800
2025-12-23,121.91534038479175,122.07409329724082,120.37738038293297,121.2406234741211,311700
2025-12-24,121.57798039532113,122.21300719710743,120.81396637664959,121.79627227783203,198000
2025-12-26,121.41922894554897,122.52060522415447,120.77427771310445,122.29238891601562,306000
2025-12-29,122.33208105068077,123.34415267923492,121.36961639767443,122.25270080566406,400200
2025-12-30,121.8458854019756,123.3342308707125,121.46883303835433,121.78634643554688,289800
2025-12-31,120.57582164498164,122.37176361957204,120.40714431232067,121.01240539550781,314300
2026-01-02,120.79411858954116,122.04433092844077,119.84157837851366,121.58790588378906,295100
2026-01-05,120.81396333104647,123.61205247154165,120.81396333104647,122.04432678222656,435700
2026-01-06,121.2703893294616,121.89549169761267,119.17678277613919,119.62328338623047,777200
2026-01-07,119.73243542753909,121.00248907397176,116.6962129559037,119.50422668457031,478500
2026-01-08,118.98826090452039,122.41146012961788,118.59136725333443,121.48868560791016,330000
2026-01-09,121.13148146291526,123.9990265337246,120.51629592819934,122.88772583007812,429100
2026-01-12,123.0365583546262,124.32646078477775,122.02448676997972,124.15777587890625,477300
2026-01-13,124.07840343065625,124.46537264637453,121.58790323017156,122.54044342041016,351900
2026-01-14,123.14570153346037,126.1720069370604,123.14570153346037,125.86441040039062,611700
2026-01-15,126.15215809530929,126.23153833510459,123.5525120178855,124.13793182373047,381000
2026-01-16,123.03655288156622,124.22722617172847,122.28245576040153,123.74103546142578,363400
2026-01-20,123.92956647771405,124.55466884396232,122.4809111423571,122.85795593261719,275100
2026-01-21,123.34415338455338,124.64398030125511,122.93734287422093,124.0387191772461,421000
2026-01-22,124.07840219082979,125.42783600604635,123.09608874217598,123.5029067993164,369700
2026-01-23,123.37391303470616,125.29884225734148,122.90757114819523,125.0210189819336,429500
2026-01-26,125.43775721229031,126.00332820078921,124.12801347207618,125.36830139160156,315400
2026-01-27,123.9791728132312,125.3186897727715,123.205234391347,123.77080535888672,303100
2026-01-28,123.23499911768216,124.09824219611878,122.29238336925172,122.73888397216797,347800
2026-01-29,123.32430960117436,124.30661551602421,121.63751348474041,122.88772583007812,386000
2026-01-30,121.9550286222896,124.03871071803064,121.70697104969861,123.97917175292969,512700
2026-02-02,123.23499750184895,124.93171793896286,123.23499750184895,123.860107421875,489100
2026-02-03,122.94725978548665,126.93602225021577,122.72896790883826,123.66165924072266,658700
2026-02-04,125.21552867481128,129.90700134775133,124.20949930267037,128.7216796875,589400
2026-02-05,127.16782066467043,128.5722782146923,121.48028130551128,123.49234008789062,2144200
2026-02-06,127.02836268310486,135.45509216979158,127.02836268310486,133.7816925048828,1045700
2026-02-09,133.05457384055362,139.02101804829903,132.72587004959905,137.9253387451172,1043400
2026-02-10,137.26793457923543,140.37565748193367,137.26793457923543,139.61865234375,622100
2026-02-11,138.48313331396238,139.99715874839507,138.05483198642824,139.4592742919922,584300
2026-02-12,139.60869173387061,141.44145054391814,138.84171623230802,139.95730590820312,572700
2026-02-13,139.9573151020267,142.3677944950846,139.85771755943315,142.01918029785156,471900
2026-02-17,138.71222079286514,143.055071512211,138.71222079286514,141.0928192138672,614700
2026-02-18,140.9135352437976,142.54708376856578,140.2860084572567,141.1625518798828,582000
2026-02-19,141.0928230678908,142.7562676088946,140.4752666602554,142.59689331054688,525500
2026-02-20,142.55704525117903,144.56910401516237,141.44145553591065,144.47946166992188,664500
2026-02-23,142.9255958993581,145.6647789342487,142.5670113304762,145.14682006835938,513500
2026-02-24,145.49544486452967,146.33213709933392,143.28417595914058,143.57302856445312,429800
2026-02-25,141.8498473766502,143.0949306198296,139.87762457633954,142.1187744140625,348900
2026-02-26,142.95547535989397,143.35389589996325,140.44538340090327,141.23226928710938,331300
2026-02-27,140.97329664666827,143.44353741820976,140.44538259466083,143.1447296142578,344600
2026-03-02,142.43751420451355,142.78614357053576,141.06293752550724,142.1088104248047,335000
2026-03-03,140.08679425249235,140.76412738697488,136.38142559574294,139.2102508544922,347300
2026-03-04,138.79191754238275,138.9612470419286,135.47501391314069,136.50096130371094,389000
2026-03-05,135.46505150535157,135.80371048641027,133.88130933030985,134.20004272460938,452300
2026-03-06,133.47291651624107,133.47291651624107,130.48471689274314,131.5604705810547,398500
2026-03-09,130.45484354440993,133.45299853256722,127.02837201579013,133.22390747070312,545700
2026-03-10,132.82547764917305,133.60240832546756,130.88313575966777,131.6102752685547,503100
2026-03-11,131.2815812945587,132.75575561111177,129.5284943463408,131.50071716308594,563800
2026-03-12,130.7536581494707,132.26766833775483,128.13399830193273,128.35313415527344,620600
2026-03-13,129.6380511924889,129.6380511924889,126.55025410703881,128.14395141601562,660600
2026-03-16,128.97069022910543,130.8931065380538,125.50438295551326,128.54238891601562,370700
2026-03-17,129.45876833048925,130.50464122844355,127.73557748644285,128.99061584472656,276700
2026-03-18,123.89075860801685,126.08210964583039,120.94240244020646,123.73139190673828,910500
2026-03-19,122.52615308632394,124.32903117833895,120.97228404186016,123.48237609863281,518500
2026-03-20,123.77123411184346,123.77123411184346,119.83676660084556,120.58381652832031,1481500
2026-03-23,123.02418368013113,125.84304628604973,122.50622481021608,123.65170288085938,455200
2026-03-24,122.67556308818467,124.72745780194329,122.38670286935901,123.66166687011719,405000
2026-03-25,124.94659356774676,126.07214606142944,123.22339504970952,125.3250961303711,337200
2026-03-26,124.72746089618293,126.83911722505529,123.6317891558115,124.19954681396484,442100
2026-03-27,123.45249678230496,123.72143142045898,121.28107129127055,121.51016235351562,381400
2026-03-30,122.07791483255923,123.45249154525831,120.62365857080745,122.87477111816406,562000
2026-03-31,123.90072145898677,126.46061226934556,123.1038651540704,125.52430725097656,557800
2026-04-01,126.83910993884153,128.13399948450484,125.83308820196113,126.25143432617188,380200
2026-04-02,124.64777023751822,126.5900970135599,123.76127159620845,125.51435089111328,297500
2026-04-06,124.0999305830527,125.6936431780852,124.0999305830527,125.51435089111328,461100
2026-04-07,124.82706080661809,126.6697824199569,124.30910953992999,125.11592102050781,376900
2026-04-08,130.86323514521675,132.1481543754263,127.64592907491694,131.50071716308594,645200
2026-04-09,130.70386349661462,131.91906599267529,126.83912013545304,130.88314819335938,424100
2026-04-10,131.7298075164679,132.178034445579,130.3353203595067,130.98275756835938,407400
2026-04-13,130.28551770076956,131.89914077103793,127.07818194963497,131.59036254882812,396300
2026-04-14,130.71381054193466,132.197955189354,130.45483870763653,130.4946746826172,315500
2026-04-15,130.29547082253353,130.51460669263554,128.0941721257409,129.14002990722656,407100
2026-04-16,126.40084558822308,129.81735412824597,126.40084558822308,127.78536987304688,393800
2026-04-17,129.14002424182965,131.7796097617975,129.14002424182965,130.11618041992188,401100
2026-04-20,130.05641512792803,131.47082778766443,129.1499909308814,130.405029296875,403600
2026-04-21,130.18589466096142,131.72980084865796,126.1916732788086,126.1916732788086,310200
2026-04-22,126.77935427393615,126.77935427393615,122.47634691200882,124.06009674072266,458900
2026-04-23,124.88682675562279,126.93872910578784,123.95052932532681,124.44856262207031,440800
2026-04-24,123.9206456254592,123.9206456254592,122.08787918491913,123.5919418334961,440900
2026-04-27,123.55209914216728,125.73348737793874,123.05406585359005,124.23938751220703,359700
2026-04-28,125.62392082821759,126.15183490401432,123.23335949687649,125.2752914428711,354300
2026-04-29,124.64776713863216,125.4047798425139,122.30701227202618,122.41658020019531,448400
2026-04-30,122.94449532386469,125.58407321741664,121.40058912214994,123.19351196289062,764800
2026-05-01,126.70962950793603,127.97463072857443,117.4362520229959,118.55184173583984,989400
2026-05-04,118.21317963909578,121.27110367417347,116.9979772200526,120.12562561035156,739600
2026-05-05,120.42445055667139,123.22339520339091,120.34476340674007,121.55000305175781,628600
2026-05-06,123.18000030517578,126.38999938964844,121.66999816894531,122.62999725341797,917000
2026-05-07,122.94000244140625,126.47000122070312,122.56999969482422,125.11000061035156,749700
2026-05-08,125.2300033569336,125.86000061035156,120.38999938964844,120.98999786376953,794900
2026-05-11,121.22000122070312,121.22000122070312,119.44000244140625,119.95999908447266,706100
2026-05-12,120.44999694824219,120.86000061035156,117.13999938964844,118.05000305175781,696600
2026-05-13,118.0,118.75,116.43000030517578,117.87999725341797,679500
2026-05-14,118.7300033569336,120.16000366210938,117.04000091552734,117.98999786376953,531000
2026-05-15,117.91000366210938,117.91999816894531,114.47000122070312,114.66999816894531,447000
2026-05-18,115.5999984741211,117.31999969482422,115.16999816894531,115.80999755859375,433100
2026-05-19,115.88999938964844,116.04000091552734,112.44999694824219,113.61000061035156,575800
2026-05-20,114.06999969482422,115.44999694824219,111.55000305175781,115.26000213623047,562600
2026-05-21,116.5,116.5,112.7699966430664,115.51000213623047,345600
2026-05-22,115.80000305175781,116.80000305175781,114.70999908447266,116.2300033569336,405800
2026-05-26,116.19999694824219,116.97000122070312,115.37000274658203,116.37999725341797,344500
2026-05-27,116.94000244140625,118.11000061035156,114.7300033569336,115.30000305175781,464000
2026-05-28,114.80999755859375,116.33999633789062,113.3499984741211,115.98999786376953,510100
2026-05-29,115.05999755859375,117.26000213623047,113.75,115.8499984741211,559600
2026-06-01,114.69000244140625,115.12999725341797,112.02999877929688,112.37999725341797,706800
2026-06-02,111.94999694824219,113.05000305175781,111.23999786376953,112.18000030517578,452400
2026-06-03,111.69000244140625,114.0199966430664,111.69000244140625,112.52999877929688,372600
2026-06-04,114.94999694824219,115.76000213623047,111.54000091552734,112.55000305175781,337600
2026-06-05,113.08999633789062,114.58999633789062,111.9800033569336,113.36000061035156,466300
2026-06-08,112.26000213623047,112.63999938964844,110.94999694824219,111.94000244140625,422200
2026-06-09,113.27999877929688,116.1500015258789,112.66999816894531,115.9000015258789,444400
2026-06-10,116.1500015258789,116.55000305175781,113.37000274658203,114.66999816894531,496800
2026-06-11,115.11000061035156,116.08000183105469,114.26000213623047,115.43499755859375,117584
