Date,Open,High,Low,Close,Volume
2023-06-12,110.32294222621215,111.19836461438904,109.95738227745571,111.00596618652344,353000
2023-06-13,111.31380521568643,111.96797012896835,110.3999016975045,110.83280181884766,340600
2023-06-14,111.21762155638966,111.55432251335365,110.00549077178887,110.78472137451172,225200
2023-06-15,110.63078951378702,111.97760059316519,110.58268623470819,111.64089965820312,362600
2023-06-16,111.25610156113251,112.75683000492063,110.97711867410236,112.69911193847656,975300
2023-06-20,112.43935080762263,112.50669098924244,111.31380462646484,111.31380462646484,297000
2023-06-21,110.76546213036721,110.88090558835343,109.11080926354511,109.30321502685547,317800
2023-06-22,109.62067424467978,109.7264955820822,108.08146480000309,109.71688079833984,266200
2023-06-23,108.61057596542958,109.40904342074265,107.8121085101165,108.5432357788086,366000
2023-06-26,108.76448767860848,110.02472159161579,108.76448767860848,109.29359436035156,142300
2023-06-27,109.50524936566322,110.45763416053002,108.92804668209335,110.36143493652344,218300
2023-06-28,110.44800572673412,110.44800572673412,108.20653531126023,109.20701599121094,204800
2023-06-29,109.12043591353498,110.97710940421138,108.27387253843727,110.41914367675781,225900
2023-06-30,110.84241565049814,111.86214042686838,110.47684839894742,111.45809936523438,279800
2023-07-03,111.02521667564719,112.574040987969,111.02521667564719,112.1122817993164,85700
2023-07-05,111.22724193095031,111.22724193095031,108.47590157241842,108.64906311035156,384200
2023-07-06,107.98527198550394,108.68754023538193,107.38882507929975,108.19691467285156,277700
2023-07-07,108.37006396940184,110.94824240327603,108.31233857239603,109.46675109863281,333400
2023-07-10,109.00499442816958,110.91939335472682,108.71639677529014,110.12092590332031,248000
2023-07-11,109.96700910178262,111.16951775643263,109.06272758436648,111.12142181396484,226700
2023-07-12,112.15076565467834,113.08391351776963,111.37153507833304,112.42974853515625,199400
2023-07-13,112.41049037080688,112.91073800474413,112.13150752486675,112.56441497802734,190200
2023-07-14,113.21858729804248,114.3248892919281,112.26619524240341,113.85350799560547,271600
2023-07-17,113.90161636491591,114.99830362389025,112.70872988558996,114.72894287109375,234200
2023-07-18,114.48843831688549,115.7967682319705,114.19021119978753,114.55577850341797,189100
2023-07-19,114.23830222496996,114.87323020662586,113.81501690386602,114.58462524414062,247200
2023-07-20,115.22918771485246,115.6524731083447,114.34414310985082,114.7962875366211,175800
2023-07-21,115.10412706121498,115.4889312891488,114.35376285348565,115.28690338134766,184300
2023-07-24,115.4600745033847,115.9122189582829,114.19984770830901,115.18109893798828,163400
2023-07-25,115.13297461841519,116.51826676509069,114.76741467505558,115.97953796386719,250700
2023-07-26,115.98920870280928,116.22087615837353,114.69571673304294,115.78649139404297,306900
2023-07-27,115.89266517527358,116.58767485454675,114.61848321813113,115.00460052490234,407800
2023-07-28,118.23831895027517,122.58212207343301,117.64949171552556,119.4835433959961,513000
2023-07-31,119.23258942271677,119.62836176431877,116.63596494338933,117.24409484863281,746500
2023-08-01,117.031703958735,118.24797086398841,116.55871413736001,118.19005584716797,365300
2023-08-02,117.22477436702148,118.08388154374163,115.81545239886735,117.99700164794922,329200
2023-08-03,117.30198526491023,118.46999212502719,116.52975802792562,116.61663055419922,195900
2023-08-04,116.43323498490459,117.89081698819571,116.29809502916336,116.4525375366211,116500
2023-08-07,116.53941911210748,117.43713875366868,116.32705421728596,117.0799789428711,140300
2023-08-08,115.91197623422308,117.18615820393119,115.55481643313685,116.91587829589844,270100
2023-08-09,116.91588728463365,119.10709159142796,116.33670759194904,117.60124206542969,287500
2023-08-10,117.57226804078596,119.28082727342787,117.57226804078596,117.98734283447266,216000
2023-08-11,117.29233186361209,118.94297606224828,117.29233186361209,118.3541488647461,226500
2023-08-14,117.79428541805788,118.72096252441406,117.35990805602609,118.72096252441406,145700
2023-08-15,118.37346829843713,118.66305814213011,117.74603591139508,117.85221099853516,249000
2023-08-16,117.5046964278356,118.88506073505322,117.27302164070392,117.3212890625,291100
2023-08-17,117.72672381164278,118.4024309795417,117.3985288684787,117.41783142089844,186600
2023-08-18,117.16685235814124,119.1360440823842,117.16685235814124,119.01055908203125,443100
2023-08-21,118.87541361000102,120.13994060696739,118.78853371795883,119.4835433959961,358800
2023-08-22,119.5704144772244,121.3465436439304,118.49894252996661,118.68234252929688,429600
2023-08-23,118.7885388380475,119.27118365031271,118.0645716196497,119.10708618164062,305000
2023-08-24,119.20361552285907,121.10523729105537,118.33485337437149,120.76738739013672,278400
2023-08-25,121.21139287448291,123.24815415160558,120.64187564839094,123.1130142211914,493000
2023-08-28,123.19991484093003,125.08223406896586,123.19991484093003,124.91813659667969,331900
2023-08-29,125.29455724151033,127.37958571701907,124.90843267429787,127.24444580078125,472400
2023-08-30,127.77537379799342,128.63448091355718,127.1286315630544,128.27732849121094,298900
2023-08-31,128.65377268309499,129.08814997614334,127.64987816740222,127.9587631225586,305800
2023-09-01,128.48005469445837,129.14609216174586,127.92018494570092,127.94914245605469,252000
2023-09-05,127.10933191058002,127.39892174655428,122.93928835166383,123.14199829101562,325300
2023-09-06,123.35435186497804,123.56670937867945,121.81953765852965,122.02225494384766,291100
2023-09-07,121.90642476392419,122.7558769627409,120.79634024831218,121.00870513916016,328600
2023-09-08,121.15351157632792,122.27324379197611,120.77704918477089,120.96044921875,238800
2023-09-11,122.58212288434471,123.48949745495977,122.02226051962224,122.60143280029297,333500
2023-09-12,121.73267978014754,122.87172187510609,121.06662755716204,122.13809967041016,258000
2023-09-13,121.41411356393762,122.19599571149733,120.76737135880614,121.01834869384766,279300
2023-09-14,121.636140247531,122.88136467115167,121.636140247531,122.360107421875,217900
2023-09-15,122.09948164304562,122.78483638765171,120.82529964265854,121.55892181396484,589200
2023-09-18,121.97399375623068,121.97399375623068,120.58397438341775,121.27898406982422,175100
2023-09-19,121.32726401586007,121.32726401586007,119.75383710104776,120.96044921875,218600
2023-09-20,121.47203081864482,121.72300815831589,120.2364613996098,120.30403137207031,206200
2023-09-21,120.01446098001375,120.03376353212249,117.94874176933433,117.97769927978516,335700
2023-09-22,118.08388014980025,118.63409493473912,117.87151525656503,118.4217300415039,341200
2023-09-25,117.7556883873549,119.82140775524918,117.25374098399664,119.73453521728516,258800
2023-09-26,119.24220633823907,119.90825842522284,118.95262391771399,119.30977630615234,547000
2023-09-27,119.73451388259583,120.13027875931763,118.60512690284568,119.23255920410156,362400
2023-09-28,119.56076662731212,121.2789808821135,118.98159435872148,121.11488342285156,219300
2023-09-29,122.0994808328885,122.42768313020652,120.45849144002428,120.69981384277344,330900
2023-10-02,120.20751791833786,121.12454749681847,119.68626062800243,120.70947265625,244100
2023-10-03,119.7152255808765,120.96045017998978,118.23833351540465,118.60514831542969,236300
2023-10-04,119.26153337850327,120.33300542683779,118.08387888468876,119.91793060302734,208200
2023-10-05,119.65729977912974,120.59363188391382,118.53756765542609,119.45458984375,466700
2023-10-06,119.31944127145509,122.29253483817196,119.10707639317893,122.02225494384766,491700
2023-10-09,121.45274741731988,122.80415444417451,121.32726240998709,122.53387451171875,275700
2023-10-10,122.82344297911708,124.14589234292649,122.11878571629325,122.14774322509766,322000
2023-10-11,123.10337829589844,123.26747575611641,122.25392612132153,123.10337829589844,212900
2023-10-12,122.8041363601095,122.9778887717552,120.71910742036091,121.06661224365234,189300
2023-10-13,121.62647642743022,122.27321862188774,121.04730420307162,121.59751892089844,324900
2023-10-16,122.9392835826247,123.00685355978747,121.79058660628245,122.31184387207031,275200
2023-10-17,121.6361379330477,123.88525698147005,121.6361379330477,123.05511474609375,314400
2023-10-18,122.4663049500312,123.23853227905134,121.8967802064746,122.37942504882812,287300
2023-10-19,121.70370985945581,123.04546176273765,121.0376577043825,121.36585998535156,443900
2023-10-20,121.55892290885227,122.08983514903522,117.69776440446827,117.97769927978516,446500
2023-10-23,117.4950492127488,118.88506856883411,117.00274946337274,117.28268432617188,379000
2023-10-24,117.89081547731821,119.4738898224914,117.49505057331248,119.0588150024414,312100
2023-10-25,118.57456478321305,119.88205053938309,118.05156900291749,118.5164566040039,431300
2023-10-26,117.44141263972791,121.44135246402949,117.44141263972791,119.54307556152344,576000
2023-10-27,119.58180642535675,119.94015002335149,116.56974286908424,117.35423278808594,364000
2023-10-30,118.0806114058696,118.46801647024314,117.04430710742416,118.32273864746094,283100
2023-10-31,118.65204893878834,119.02007972748278,117.99346247171451,118.41960144042969,422900
2023-11-01,118.26464547425135,119.54307717643965,117.78039092964764,119.05882263183594,360500
2023-11-02,119.82393753491263,120.37598738258195,119.10724292668908,119.68834686279297,384300
2023-11-03,120.51158420536397,122.003089063941,120.51158420536397,121.4026107788086,278000
2023-11-06,121.32512525461992,121.77064591937194,120.82150380061947,121.24765014648438,173500
2023-11-07,120.69561059020047,121.05395423969588,120.25977704767764,120.62781524658203,205000
2023-11-08,120.94740023906827,121.53819131521276,120.49220721978558,121.17984771728516,175800
2023-11-09,121.7319040679417,121.7319040679417,120.16291675704831,120.47283935546875,118600
2023-11-10,120.32756674184381,121.82875878037683,119.98859003966672,121.7609634399414,195600
2023-11-13,121.44134731636984,121.5285169718777,120.45347135181835,120.60842895507812,183100
2023-11-14,121.98371434677951,123.83357021629412,121.36386913343608,123.82388305664062,267400
2023-11-15,123.79483768270165,124.74397988884898,123.33963720572989,123.68830108642578,388600
2023-11-16,123.63019752305594,124.56964521483891,122.84570006760241,123.5333480834961,217000
2023-11-17,124.5115175822605,125.01514641193484,123.59143696643567,123.90135955810547,162700
2023-11-20,123.43648091454516,123.6301871665767,122.44860489116716,123.31057739257812,213900
2023-11-21,123.44615504617012,124.25970644056609,123.19434063967408,123.88198852539062,160600
2023-11-22,124.40498620938287,125.13136800676534,123.34931487730645,124.5212173461914,174800
2023-11-24,124.90861400007235,124.90861400007235,124.06601585130784,124.48246765136719,65900
2023-11-27,123.794825618472,124.25971321047442,122.85537066421331,123.00064849853516,367500
2023-11-28,123.00063818205517,123.01032534063415,121.53818758038103,121.65441131591797,218000
2023-11-29,121.68348364866526,122.4195526391636,120.98615590915504,121.42198944091797,331800
2023-11-30,121.49945624960122,123.12655173420484,120.879611054432,122.89411163330078,301000
2023-12-01,122.43891423680424,124.49214872577235,122.43891423680424,124.0660171508789,218300
2023-12-04,123.43646825089567,124.8214437961348,122.89410557912561,124.37592315673828,192000
2023-12-05,124.21128583306977,124.637432180179,121.91591672132816,122.02245330810547,178000
2023-12-06,122.40986986130585,123.29121672727666,121.91592812994705,122.3905029296875,179500
2023-12-07,122.2645865924303,123.10719216867501,122.02245931767312,122.5067138671875,254000
2023-12-08,122.38080955024061,123.48490932483753,121.66411489056881,123.31057739257812,265800
2023-12-11,123.25246840515973,123.65924044805773,122.36143442992014,123.55270385742188,338000
2023-12-12,123.63017515188055,124.06600863474264,122.69072024095559,123.46553039550781,210300
2023-12-13,123.17499431617054,124.92800090689016,123.17499431617054,124.54058837890625,425000
2023-12-14,125.01515711630776,125.91586349088605,122.88443265064014,123.3880615234375,412900
2023-12-15,123.1556125644903,124.53089362221667,122.00308444712681,122.01277160644531,713000
2023-12-18,122.71979057892658,123.2040451423613,121.91592623023179,123.04908752441406,240500
2023-12-19,123.68828729734022,124.09506670556218,122.06119183186492,122.25489807128906,659100
2023-12-20,122.05150298155804,122.94253689228862,121.50914029696,121.61567687988281,346400
2023-12-21,122.26458682357395,122.26458682357395,120.91835976450997,121.94498443603516,421900
2023-12-22,122.41954341082864,123.03938860163689,122.14836206349223,122.29363250732422,312200
2023-12-26,122.16774340609439,122.87475833575174,121.63506041874032,121.86750793457031,274700
2023-12-27,122.1483674460001,122.48734414510773,121.09268870976447,121.3348159790039,283100
2023-12-28,121.04425844496743,121.8384355318541,120.48252144984001,121.25732421875,343600
2023-12-29,121.24765553578665,121.4123003079572,119.66898098751031,119.72709655761719,313500
2024-01-02,118.74890465167896,120.19198118193904,118.4389820266069,119.0103988647461,313100
2024-01-03,121.20891408766599,123.25246885863528,119.2718959077245,121.41230010986328,531700
2024-01-04,121.23796483552567,121.95465947338585,120.22102736343857,120.30819702148438,353300
2024-01-05,119.88204634088143,120.45347050993072,119.11692332182685,120.288818359375,423000
2024-01-08,120.16291594190298,121.21859463473278,118.51645353442673,120.43409729003906,352400
2024-01-09,119.81424996434863,120.71496364841524,119.0975553585858,120.70527648925781,250300
2024-01-10,120.54063528985738,121.47040308972274,120.317882346619,121.24765014648438,279600
2024-01-11,121.43165795791798,122.97159113814334,121.00551901481788,122.8456802368164,323100
2024-01-12,123.86262311015058,123.94010560835483,121.9546590794131,122.44860076904297,231700
2024-01-16,121.91591381064313,122.82631466168198,121.55757019925443,122.8166275024414,257500
2024-01-17,121.97402717748967,123.26213854603338,121.92559877129759,122.70040893554688,336900
2024-01-18,123.31058632417547,125.91587094774778,122.33239000069315,125.07327270507812,444200
2024-01-19,125.62532076349432,127.32021167365423,124.49215212153315,126.68099212646484,418000
2024-01-22,126.77783989524994,127.65918675513005,126.44855033604526,127.0587158203125,266200
2024-01-23,127.64950425843382,127.69793266981851,126.22579467772647,127.67855834960938,217800
2024-01-24,127.95940434814659,128.12404910475004,126.42915835478719,126.66160583496094,294400
2024-01-25,127.87222651723596,128.211210537269,126.2741927731321,127.11679077148438,332300
2024-01-26,127.53327613099292,128.4146229928944,127.2620947547581,127.55265045166016,219900
2024-01-29,126.92311919612955,128.41461669224083,126.3807564702709,128.0853271484375,187800
2024-01-30,127.87225396638219,128.89887123722548,127.48485624170483,128.0853271484375,228400
2024-01-31,128.6002301485407,128.98884744345068,125.48165603714608,126.18115234375,537500
2024-02-01,126.74463109681972,127.37611379178679,125.91883235026269,126.78348541259766,298800
2024-02-02,126.25887748257338,126.98751824296068,125.02504164419864,126.39488983154297,344800
2024-02-05,125.45252075117756,127.7064419292571,124.4032762146761,126.9292221069336,319500
2024-02-06,126.76405604375617,127.6578535856557,125.61766837835263,127.39555358886719,369700
2024-02-07,127.66760086587935,128.6488319136085,125.68568937194364,128.04649353027344,393000
2024-02-08,127.89101966708147,130.99988380062553,127.79386164056334,128.3573455810547,620700
2024-02-09,128.34763875632336,135.24544372439263,127.76472023183752,135.0025634765625,650900
2024-02-12,135.19685465206098,136.46954468413216,133.59383624109773,133.6909942626953,491300
2024-02-13,132.79720331284167,133.41897613857319,131.13589593708764,132.058837890625,275900
2024-02-14,132.37946203063507,133.54529923011492,131.3205075712021,133.2635498046875,335000
2024-02-15,133.26352772923445,133.88530054798204,130.7375821386744,131.19418334960938,471400
2024-02-16,131.51480751987208,134.06991277521306,131.19420377563176,133.5841522216797,453900
2024-02-20,133.2343801311246,136.14894292952246,133.04978878201547,135.71176147460938,373000
2024-02-21,135.1191419156268,136.11980735566468,135.03170858379454,136.012939453125,276300
2024-02-22,136.4695496025818,138.36401249814983,136.08094715065158,137.44107055664062,295700
2024-02-23,137.92684167751443,138.00456513874505,136.59586261149656,137.33421325683594,190300
2024-02-26,137.47019789226147,138.0142471869545,136.79013627389514,137.87823486328125,199200
2024-02-27,137.87825149589725,138.13084160626636,135.81863182489295,136.31410217285156,244600
2024-02-28,135.6728743256024,137.21760367011265,135.36199537697595,136.41123962402344,189600
2024-02-29,136.62499564942553,137.59651659734325,135.8477759262447,136.4598388671875,250600
2024-03-01,135.89635016734115,136.78042293249038,135.58545635929062,136.29466247558594,151400
2024-03-04,136.68327855712852,138.0725463362649,136.55697609566792,137.9171142578125,260300
2024-03-05,138.21828615058587,139.13151819196344,137.7033812462743,138.46116638183594,190200
2024-03-06,138.85948674736358,139.54927316677816,138.4223052706071,138.99551391601562,184000
2024-03-07,140.38476486062655,141.00653762067319,139.7435575325132,140.53048706054688,250100
2024-03-08,140.58881247786712,140.9385606359244,138.89836057655117,139.0149383544922,185200
2024-03-11,138.72347568915376,139.29668433987692,137.93654605884916,138.67491149902344,226700
2024-03-12,138.73318637825068,138.78176538770967,137.45077168484818,138.3542938232422,242200
2024-03-13,138.92750291804336,138.92750291804336,136.9164473335974,137.13990783691406,336800
2024-03-14,137.334189290486,137.58677937722993,136.3626684309959,136.9164276123047,235200
2024-03-15,136.05178467736658,138.3542993647007,135.76034025740415,136.9844512939453,599500
2024-03-18,136.91646004723472,137.2759329308813,134.9734178679561,135.2940216064453,299700
2024-03-19,134.9248171938589,136.32380955657803,134.9248171938589,135.536865234375,253000
2024-03-20,135.65346636305446,136.08093792573945,135.17741579111308,135.98377990722656,220000
2024-03-21,136.3141039613634,137.5673743053394,135.33287312535157,137.12046813964844,255800
2024-03-22,137.96568472502892,138.3931563147583,137.0330329149223,137.55764770507812,276000
2024-03-25,137.17875500009464,139.94759563375453,137.1496105575705,138.88864135742188,316300
2024-03-26,138.7623528695866,140.20019986781864,138.55832692713028,139.12181091308594,314200
2024-03-27,139.5783959501845,141.01624262865462,139.5783959501845,140.5402069091797,218200
2024-03-28,140.69568229822846,141.21058725679168,139.55898965088838,139.7921600341797,247800
2024-04-01,139.6949981759376,139.6949981759376,138.07255988358438,138.2377166748047,204400
2024-04-02,137.80053208284255,137.80053208284255,136.3918296283509,136.625,202600
2024-04-03,136.66386346242072,137.16905855601934,135.886643662477,136.86788940429688,258700
2024-04-04,137.79082770836482,138.68462526566978,136.95531904023974,137.71310424804688,403600
2024-04-05,137.35365632292107,138.69434534542057,136.93589454599896,137.6936798095703,288300
2024-04-08,137.63539087239522,138.32517736811184,136.39184506466097,136.5084228515625,312500
2024-04-09,136.42097007036026,137.08161202520498,135.39116023485812,136.31410217285156,242600
2024-04-10,135.02198614707606,136.2266775391274,134.50708119646376,135.43002319335938,200700
2024-04-11,135.2940275348709,136.051812832056,134.5070977896584,135.16773986816406,265300
2024-04-12,134.23504002650498,134.99282513721704,132.08798715423154,133.29266357421875,299200
2024-04-15,134.66253312030298,135.82835541361058,133.90474788844134,134.2642059326172,319600
2024-04-16,133.86586195888154,135.4203013711966,133.44811507605868,134.64308166503906,281700
2024-04-17,134.92485214373025,135.50775589636643,134.4099471579958,134.45851135253906,565400
2024-04-18,134.44878861647487,135.46888861629466,134.28363182781587,135.14828491210938,246600
2024-04-19,135.09972514911323,135.9352339088312,134.81799054578042,135.3717498779297,276600
2024-04-22,135.5757619405855,137.1301866853224,135.28430266837407,136.32383728027344,298800
2024-04-23,135.78949299276147,137.13990657658505,135.54661274513685,136.15866088867188,417200
2024-04-24,136.36329301656707,137.28894299900975,136.06124022029175,136.4217529296875,559200
2024-04-25,136.25610434963974,137.62997170625445,135.35968437114948,136.58738708496094,694400
2024-04-26,138.36074617212847,144.70389897172197,138.26330307984543,139.6566619873047,489500
2024-04-29,141.1864289502725,144.22647823824295,140.670013228058,142.62850952148438,676700
2024-04-30,142.004909646234,142.35568398559658,140.36795777329885,140.6797637939453,585100
2024-05-01,141.2741399676868,143.43724605293235,140.87464405380578,141.65414428710938,359600
2024-05-02,142.02439483195232,142.96953644520997,141.56643900417882,142.1802978515625,356500
2024-05-03,143.33976921113882,143.35926080100958,141.12794209420005,143.04745483398438,303300
2024-05-06,143.97311219834887,145.25928957827287,143.38849828106964,145.22030639648438,260200
2024-05-07,144.51877476610764,146.52597749323783,144.51877476610764,145.8828887939453,392900
2024-05-08,145.8829062711246,147.003427580538,145.64905175216694,146.92547607421875,223500
2024-05-09,147.13009939399845,147.84138644002505,144.82084365124953,145.25930786132812,299100
2024-05-10,145.13265086466745,145.18137241956254,144.29469067075806,144.6844482421875,186300
2024-05-13,144.72336510263932,145.64901484556526,143.09616684833824,144.0802764892578,167500
2024-05-14,144.49928507792563,144.5090234397785,143.690555012297,144.10952758789062,137600
2024-05-15,144.16802780381772,144.53827890002992,143.00852322640148,143.5054473876953,211100
2024-05-16,143.5931171809895,144.10953286493412,142.67720563052816,143.75875854492188,235500
2024-05-17,144.06083161219536,144.3726227596562,143.3592829457471,143.88543701171875,169500
2024-05-20,143.80748238942644,144.60647413522753,143.27157510477068,144.37261962890625,163400
2024-05-21,144.14852481169098,144.86955021996388,143.32030307395482,144.7818603515625,280400
2024-05-22,144.2751813532465,145.0156982700934,143.69055256202734,144.97671508789062,283300
2024-05-23,144.85008526454678,145.1326464860436,143.77827056011617,143.93417358398438,171700
2024-05-24,144.6746820401184,145.01571802607805,143.58339067341524,144.294677734375,162300
2024-05-28,143.83670944930827,143.99261245038466,142.08285272424865,142.95004272460938,318400
2024-05-29,141.91718337314714,142.94027628000015,140.8064006116937,141.12794494628906,229700
2024-05-30,141.41052828428462,143.21310648226037,141.28385524260108,142.39463806152344,328100
2024-05-31,142.34595239811784,144.04136444077085,142.18031099986297,143.9049530029297,358900
2024-06-03,144.69416726211233,144.69416726211233,142.53106134998768,144.36288452148438,266200
2024-06-04,143.86592099935996,144.58696113630214,142.94027120894233,144.39208984375,287900
2024-06-05,143.93415699679983,144.40185114677604,143.3105598409219,144.1290283203125,229200
2024-06-06,144.2167184531987,144.2167184531987,141.67360827716013,142.21926879882812,197600
2024-06-07,142.0341260854559,142.57977170193118,141.7223200944826,141.81976318359375,179100
2024-06-10,141.11821719014912,142.07309703669912,140.2997487502491,141.85873413085938,125800
2024-06-11,141.19618149643244,142.0049116476871,140.65053582034008,141.77105712890625,147700
2024-06-12,142.49210149645975,142.56029977406186,140.37771700711468,142.0926055908203,221300
2024-06-13,142.15106550525925,142.77466270549132,141.30336701043458,142.0926055908203,232400
2024-06-14,141.37156596501876,141.65414204313348,139.99769849820458,141.040283203125,141500
2024-06-17,141.15718412148226,142.92079402863507,140.86488458704773,142.57977294921875,303800
2024-06-18,142.72591745789433,143.9049133850115,142.71617909634801,142.9305419921875,219900
2024-06-20,142.9013265736243,143.74902501392364,141.93669344423844,142.07310485839844,199900
2024-06-21,142.13154639662324,143.36900219437092,141.5859008105154,143.08644104003906,444100
2024-06-24,143.4469635485069,144.43107334340556,142.91105628683806,142.95977783203125,182900
2024-06-25,143.02797539856016,143.0377286281878,140.79667136986237,141.14744567871094,194500
2024-06-26,140.5530858194562,141.07923987621706,139.29615315358203,140.0269317626953,192400
2024-06-27,140.18283081054688,140.19258404144063,138.6238452437368,140.18283081054688,377300
2024-06-28,140.09511712498676,140.62128600098913,136.4996843206381,137.20123291015625,435100
2024-07-01,137.7566365411792,137.85406476284226,134.84326063403208,134.98941040039062,306400
2024-07-02,134.93096624606906,136.8992009132668,134.22941755019122,136.8017578125,259400
2024-07-03,137.2694557978359,137.77611825136836,136.96740302461077,137.60073852539062,143300
2024-07-05,137.37664516545647,137.81510937338362,136.14892754198513,137.2889404296875,207000
2024-07-08,138.01969691787608,138.8479185192925,137.87354716126237,137.88328552246094,249300
2024-07-09,137.24996524910202,137.64946111828195,136.16841232749826,136.4509735107422,238400
2024-07-10,137.14276083334656,138.0002123372594,136.96738113539686,137.66891479492188,142000
2024-07-11,137.5812505259672,139.62743658884474,137.14278633184458,138.4484405517578,244500
2024-07-12,139.73458741666883,141.76128144265283,139.73458741666883,140.88433837890625,263900
2024-07-15,141.0500051627038,141.95617833865197,139.471528177945,139.75408935546875,319900
2024-07-16,140.1633528436763,141.57618861187552,140.1633528436763,140.8551483154297,178800
2024-07-17,140.6407683731012,142.03412724659594,140.6407683731012,141.14744567871094,242300
2024-07-18,140.90386821584644,143.4762084725293,140.89412985288294,142.53106689453125,434200
2024-07-19,142.83313419872104,142.83313419872104,140.95260408241623,142.19979858398438,251200
2024-07-22,142.24848193663573,143.77823725930674,141.52744176904503,143.417724609375,235700
2024-07-23,144.08031236478044,144.70390954486243,141.9366979874817,142.29721069335938,234500
2024-07-24,142.3264523213691,142.87209798322195,140.21205308009542,140.44590759277344,250600
2024-07-25,139.60533657447922,140.79779389334837,138.03168486117107,138.29559326171875,558100
2024-07-26,139.89854478345555,147.87430433163027,139.13615611277922,143.34884643554688,562800
2024-07-29,143.27066227743248,145.00070512899177,141.89249229543964,144.46311950683594,390900
2024-07-30,144.05261598846926,144.56086524361248,142.1270913586634,142.45941162109375,411000
2024-07-31,143.1924470445361,145.4893967000446,142.12705972104024,143.66160583496094,280600
2024-08-01,143.56388751848672,146.1638212279078,142.14661231103588,143.7104949951172,335300
2024-08-02,143.2706780465831,143.68119395387907,140.50456891748377,142.40077209472656,213500
2024-08-05,140.19175816641953,140.19175816641953,136.33094072792318,137.50384521484375,448500
2024-08-06,138.13918435319152,142.7917121263533,137.92415011565598,141.65789794921875,476000
2024-08-07,142.71351863316335,143.93529731272562,140.23087091858068,140.35794067382812,353600
2024-08-08,141.19851020506624,142.86012605228407,141.19851020506624,142.27366638183594,268600
2024-08-09,142.12707150261355,142.12707150261355,140.2308686365047,140.7000274658203,263200
2024-08-12,140.71958701960284,140.92483749251866,139.5466824314966,140.054931640625,221100
2024-08-13,140.26995040499233,142.01954569055792,139.8692183640081,141.11053466796875,212000
2024-08-14,140.87598685966623,141.54062736485398,140.25043671360459,140.6511688232422,115700
2024-08-15,141.72634869442948,144.01351515599896,141.72634869442948,143.6909637451172,277500
2024-08-16,142.8112574093109,143.52477193479024,142.3225459699408,143.40748596191406,250600
2024-08-19,143.01652131100408,144.39467622104934,142.62554321493963,143.65184020996094,191200
2024-08-20,143.66163572090477,144.9616101671914,143.66163572090477,144.76612854003906,387200
2024-08-21,144.8247430345538,146.19314398389653,144.13078115759419,145.95855712890625,267300
2024-08-22,146.19315832348536,147.004406250368,145.313468716703,145.62625122070312,200400
2024-08-23,146.28112932183024,147.13148255671317,146.0660950693302,147.04351806640625,221400
2024-08-26,147.27808563075303,149.22316270583966,146.7502837904236,146.76983642578125,235500
2024-08-27,146.62321074365258,148.1186666577194,146.4570506325663,147.78634643554688,208300
2024-08-28,147.52242380780478,148.5389519252962,147.52242380780478,148.11865234375,249000
2024-08-29,149.10587309256547,149.45774594898302,147.79612992701317,148.8419647216797,187100
2024-08-30,148.76379108574673,149.97580108462319,148.2164365424776,149.7314453125,178500
2024-09-03,148.67579943804665,148.9397077997503,146.34952813965234,146.65252685546875,362400
2024-09-04,146.222517767161,147.49315600512293,146.222517767161,147.32699584960938,175800
2024-09-05,147.66904200257636,148.333682363871,146.56454943916117,147.31716918945312,200600
2024-09-06,146.9848817009006,149.66301128850816,146.9848817009006,148.93972778320312,319100
2024-09-09,149.12543417994374,149.60436190451168,148.02094141802903,148.48033142089844,241500
2024-09-10,148.4412283503302,149.34045573341479,148.02094361320775,148.08935546875,158100
2024-09-11,147.38558937416465,147.4735687681419,145.2743672902122,147.43446350097656,178000
2024-09-12,147.48335555565916,148.57806454072724,146.58412818731162,148.52920532226562,200400
2024-09-13,148.75400023614793,149.55547929481034,148.47053923038047,148.8419647216797,138600
2024-09-16,149.58480892545694,149.711878687663,148.63672233934471,149.53594970703125,182900
2024-09-17,150.52314424187358,152.05770553358903,148.44122844829255,149.57504272460938,259900
2024-09-18,150.28854503898594,151.97949745395337,149.26226288919727,149.6141357421875,214200
2024-09-19,151.5201058020689,155.2245321204598,151.5201058020689,153.35765075683594,412400
2024-09-20,152.78100845586,152.78100845586,150.9923223219497,152.39004516601562,663300
2024-09-23,152.64413901555898,153.36743736156149,151.24643136778755,152.4388885498047,315800
2024-09-24,152.6539129888592,153.53360261442796,152.5073055084099,153.09376525878906,246200
2024-09-25,153.74863062888252,154.30575394629471,152.35090807666947,153.5922393798828,284100
2024-09-26,154.37417652916213,155.4688854139277,154.13958966201668,154.8042449951172,371600
2024-09-27,155.0974630619756,157.9026770071578,154.6869472219151,156.2801513671875,354300
2024-09-30,155.6936899424124,156.79818261159085,155.34181709559473,156.57337951660156,289800
2024-10-01,156.91546068172758,156.91546068172758,155.45911015341082,156.35833740234375,192200
2024-10-02,156.25081826197203,156.49517397582386,154.39372080241395,155.16587829589844,186900
2024-10-03,154.42305944347365,156.83729535757135,153.10353247642593,155.3516082763672,367000
2024-10-04,156.32902451153032,157.82448038886116,155.73279593261282,156.95457458496094,350500
2024-10-07,155.79141647461796,156.0357721698799,154.4425682642,155.1072235107422,223300
2024-10-08,154.70649792015064,155.42979624698927,153.5531460383624,155.0876922607422,205900
2024-10-09,154.77492465796232,156.4365406316993,154.5501066490753,156.0944366455078,152600
2024-10-10,154.4816916598629,155.78166590095645,154.4816916598629,155.62527465820312,168500
2024-10-11,157.3064660526596,158.26433645347558,156.7297900399239,157.90269470214844,194400
2024-10-14,161.26501674638376,163.9724675604005,159.76956083662878,163.41534423828125,469700
2024-10-15,163.54239287081296,165.8295586827653,162.73113014312963,164.87167358398438,397300
2024-10-16,164.89125425631357,165.37996574783452,162.1740195566003,162.2913055419922,330000
2024-10-17,163.21007464638268,164.5198326911605,162.76046845617475,164.0995330810547,238200
2024-10-18,165.28222016135715,165.28222016135715,163.99201476040307,164.8228302001953,171500
2024-10-21,164.66645267293757,164.6860053087812,162.54544656978644,162.57476806640625,217900
2024-10-22,161.97853331620303,162.613852271317,161.0890748476109,162.06649780273438,228500
2024-10-23,162.75071325021858,164.18752638480976,162.40862411749714,163.86497497558594,318100
2024-10-24,164.96263491104682,164.97243006379486,162.8359053646187,163.22793579101562,547300
2024-10-25,165.5506429301697,166.46210050279106,161.3266145463958,165.5408477783203,518900
2024-10-28,166.51111226995798,167.9910028799948,165.39385168622255,165.72708129882812,350000
2024-10-29,165.65844142123623,166.1092726098588,164.29616765842155,165.33502197265625,338100
2024-10-30,164.9920484370092,166.80513883198944,164.76662531600283,165.65847778320312,290300
2024-10-31,165.7172777293478,166.8835440333996,164.51181585696605,164.56082153320312,329900
2024-11-01,164.74701596713246,167.57937026995276,164.27657947244072,166.0308837890625,316300
2024-11-04,166.24649215601715,167.16774490614142,164.82540251348084,164.90380859375,191800
2024-11-05,164.39420326637682,166.9619390225879,164.39420326637682,166.91293334960938,206200
2024-11-06,171.6563823010005,171.6563823010005,168.7064263444236,169.70608520507812,264100
2024-11-07,170.72530660636033,171.96018351412084,170.07846774557422,171.2251434326172,412300
2024-11-08,171.21537219293572,174.29274010121063,171.0095692978779,172.2542266845703,309200
2024-11-11,172.80305109831977,174.47893431358193,172.39141544269447,172.6364288330078,189100
2024-11-12,173.12645192520313,173.70469487939047,171.46036389745427,172.19540405273438,179800
2024-11-13,171.99940490722656,172.87165200345066,171.55838378296605,171.99940490722656,168400
2024-11-14,171.65636354138798,172.28359717955007,170.44110677931556,170.6273193359375,198200
2024-11-15,169.51987152643795,170.29410728655165,162.8555040894364,163.16912841796875,620500
2024-11-18,163.07112374085875,164.4726082153111,161.05221564532687,163.36514282226562,384400
2024-11-19,163.1005165746191,164.32558356152833,162.8849035885686,163.57093811035156,287600
2024-11-20,163.6689523651395,165.57025875538363,162.3458740139482,165.36444091796875,221800
2024-11-21,165.32523474432278,166.8345106222636,164.39418686832857,166.4915008544922,205100
2024-11-22,166.7855161620559,168.63783184110315,166.7855161620559,168.0889892578125,241600
2024-11-25,168.61822873869966,170.54893557134125,168.31441450843965,169.0592498779297,270100
2024-11-26,169.41206482132665,169.41206482132665,167.74597670276387,168.60841369628906,140300
2024-11-27,169.2258486988311,170.41172010241513,168.09879307136399,168.30459594726562,167200
2024-11-29,169.14745603968092,170.0295132982539,168.65742921417322,169.5100860595703,117300
2024-12-02,169.52966938718723,169.65708114199288,167.43235525852162,169.31405639648438,170900
2024-12-03,169.99028664377565,169.99028664377565,167.67735964872438,168.9612274169922,160100
2024-12-04,168.46139595900706,169.44144946157957,167.61854934861756,169.14743041992188,173400
2024-12-05,168.5790016500735,169.00043244262315,167.12852661860668,167.68716430664062,245000
2024-12-06,168.17721164137058,169.2062560061618,167.44217140684438,167.73617553710938,209200
2024-12-09,168.13799201141873,170.00989796299024,166.8345189382819,167.3833465576172,301700
2024-12-10,167.314763972231,167.95179287684704,164.83522938002554,167.5009765625,287000
2024-12-11,168.4516157508474,170.6273359159199,168.32420399879283,168.87303161621094,418600
2024-12-12,168.2458005582768,169.15725818713602,167.37355344809498,168.21640014648438,178300
2024-12-13,167.50097468369896,167.58917592406897,166.43271978295425,166.8051300048828,153200
2024-12-16,166.74630591386563,167.52054161759173,164.24716643769864,164.286376953125,236100
2024-12-17,163.57093094101776,163.5807410473189,159.59191593464618,159.83692932128906,511900
2024-12-18,160.42498045548814,161.14041541532916,154.7602716927562,155.05429077148438,468600
2024-12-19,155.34830616944112,158.34728304478696,155.0738923305623,155.7011260986328,404700
2024-12-20,155.55410914655246,156.59296357357135,154.32904214215637,155.02487182617188,730200
2024-12-23,154.0350301134896,155.7305187378595,153.82922722182215,155.3581085205078,194900
2024-12-24,155.61291680874774,156.2401505443862,154.77007007450553,156.1715545654297,100500
2024-12-26,155.26008773522096,156.44595915755792,155.26008773522096,155.6815185546875,164500
2024-12-27,154.6720483902693,156.39693714261043,154.4662305781917,154.99545288085938,145000
2024-12-30,153.86840893166374,154.34864055969513,151.90830181151514,153.60379028320312,221700
2024-12-31,154.14284841492992,155.0935017229513,153.06478333745213,153.96644592285156,317100
2025-01-02,154.50544526899088,154.95627650847348,150.38922310762084,151.08506774902344,239400
2025-01-03,150.9674458911304,152.61394367101406,149.82078500459767,152.39833068847656,250700
2025-01-06,150.92827181639163,151.5555055945941,148.41933670358165,149.86981201171875,369000
2025-01-07,152.8099524460056,152.94715934907052,149.55618233571022,150.36961364746094,361200
2025-01-08,149.84039419615527,151.1830628417546,149.05634832584286,151.07525634765625,228600
2025-01-10,149.67380144035604,151.22228807240447,149.53659452128502,150.3892364501953,350800
2025-01-13,149.87959178115395,151.61429086251573,149.87959178115395,150.82044982910156,349300
2025-01-14,151.72210026466513,152.3493339905026,150.41862714054025,151.52609252929688,196900
2025-01-15,153.0059656935918,153.7900115770172,151.09486413391397,152.45713806152344,206100
2025-01-16,152.78055957623786,154.03502702458957,152.21212667707357,153.29019165039062,346300
2025-01-17,153.83899910671454,154.79944734957013,152.5747217171077,152.97654724121094,231900
2025-01-21,153.59400049694958,157.0633836408648,153.59400049694958,156.6419677734375,270900
2025-01-22,156.16172893522588,157.5436080286148,155.18167538605874,155.89712524414062,280000
2025-01-23,155.29929122166507,156.6223545339136,154.58384136708125,156.43614196777344,149800
2025-01-24,156.4655345596154,157.26918560397357,154.08401174390775,155.14247131347656,329600
2025-01-27,155.09349854860477,155.75013273528967,153.52540664153773,155.29931640625,317000
2025-01-28,154.42704949078208,157.15159724174742,154.42704949078208,155.2600860595703,204300
2025-01-29,155.61291457845172,155.65212509823508,153.49599514310032,153.97622680664062,265800
2025-01-30,154.67206164041292,155.51489335460406,153.4567898296652,154.9758758544922,274200
2025-01-31,154.75045154888468,156.21073674071707,153.63319108572594,154.01541137695312,834100
2025-02-03,151.49669007178431,153.62340462840817,151.0654640871359,152.86875915527344,364600
2025-02-04,152.9765565302281,155.299293635513,152.9765565302281,154.554443359375,302400
2025-02-05,155.56677163973305,156.9231205538214,155.07534261256754,155.60609436035156,262600
2025-02-06,157.1000465610709,157.1000465610709,152.70666933390916,153.76815795898438,446600
2025-02-07,154.9181067066418,155.19330580645521,139.60517395113374,140.7256317138672,1221500
2025-02-10,141.7871257185982,142.1213089214259,138.4847213993473,140.8239288330078,621900
2025-02-11,139.83124474666104,140.61753433103604,137.8556901038002,139.85089111328125,377300
2025-02-12,138.553529027578,141.0303360226166,137.53134804673115,139.27101135253906,423500
2025-02-13,140.30300099128152,141.31534368657196,139.03512057584868,140.32266235351562,665900
2025-02-14,141.22689417596524,142.81911962723777,140.27352054231486,142.3080291748047,512800
2025-02-18,142.3080350119088,144.7651805608191,141.4332917963858,144.38186645507812,489600
2025-02-19,143.63488862497093,144.9617531188217,143.1139750082088,144.5194549560547,331000
2025-02-20,144.45067143286263,144.8929546251905,143.41866731928027,144.16563415527344,283100
2025-02-21,144.50964123842508,144.86347079347803,142.71100891667461,143.8314666748047,451900
2025-02-24,143.67418921142476,144.76516229739394,141.88539527604814,143.1139678955078,353300
2025-02-25,143.3793614383485,145.7873610696006,143.22210052435642,145.17799377441406,336700
2025-02-26,144.13615069776068,146.62278077273558,144.10666615119783,144.12632751464844,735600
2025-02-27,143.72335768500795,144.65707002297643,142.86827580669944,143.13365173339844,262800
2025-02-28,143.65455331584818,144.4310046691492,142.15078151982524,144.23443603515625,348700
2025-03-03,144.45066986764067,146.2886098899811,143.19261258000728,144.07717895507812,394100
2025-03-04,143.04518692456787,145.41387896963047,142.65204961296442,143.43833923339844,490100
2025-03-05,143.54644673744147,146.2984527664409,143.54644673744147,145.89547729492188,445100
2025-03-06,145.0305485219981,148.9030120941682,144.53911943917907,148.5590057373047,471700
2025-03-07,147.9299644739293,150.73111600559318,146.62276142563442,150.1610565185547,480200
2025-03-10,149.46325521067857,151.36016435752973,147.6646228865031,147.9889678955078,391100
2025-03-11,147.7628883461735,147.9791183355485,144.7455216717179,145.35488891601562,304000
2025-03-12,145.69888686695407,145.69888686695407,143.0648194196245,143.52676391601562,299700
2025-03-13,143.9002588077556,144.67671011222558,141.29567583016868,142.27853393554688,238400
2025-03-14,142.74048587257624,144.3720340117381,142.0623113450195,144.14598083496094,223600
2025-03-17,143.9985523832392,145.46301652973597,143.3597005392626,145.30575561523438,225200
2025-03-18,144.86347189053822,145.00107144092166,143.28106956251574,143.7921600341797,219900
2025-03-19,143.8314663428333,144.93227773224964,142.97638450227305,144.4604949951172,279600
2025-03-20,143.62507975791536,144.8929602918042,141.26621097787046,142.7110137939453,332800
2025-03-21,141.53158870516717,142.96656835609656,139.91970176702517,142.33753967285156,601900
2025-03-24,143.25157833447938,145.6399164898611,142.42598107068508,145.45318603515625,463800
2025-03-25,145.94462657089437,146.67193207582238,143.42849685961332,144.6865692138672,325200
2025-03-26,144.52930198564368,146.15101202434067,143.79215833219487,146.01341247558594,630400
2025-03-27,145.7382209424352,147.3206233338603,144.50964812291966,146.78988647460938,312700
2025-03-28,146.73087685638546,147.42871269525497,143.26138901740174,144.4113311767578,239800
2025-03-31,144.06735434534886,146.5343229870739,143.59558661646503,145.8365020751953,372500
2025-04-01,146.3279289386792,147.45820983366664,144.85364168579534,146.54415893554688,240000
2025-04-02,145.4630159103769,148.53936692435062,145.4630159103769,147.94964599609375,247600
2025-04-03,144.24427337200635,147.4778854578111,143.9494278906975,146.1215362548828,352900
2025-04-04,142.73066750752537,145.42370434629547,137.63945428633932,137.7770538330078,531600
2025-04-07,134.00287530876898,139.6837941624517,128.60699371434606,132.3418426513672,629900
2025-04-08,135.02506928764396,136.92197848483247,129.0296280479611,131.36883544921875,473800
2025-04-09,130.8970262401065,141.94435598098875,129.06892468762786,141.2858428955078,491800
2025-04-10,137.60014014324574,140.9123672890104,135.21180205228458,138.34710693359375,309000
2025-04-11,138.45522828256912,142.2294151261458,137.3446087271347,141.6396942138672,203000
2025-04-14,143.30071647529343,143.8904223472296,141.32516206166184,143.29087829589844,249300
2025-04-15,143.59558776645045,144.02803277300885,141.30552638075724,141.4726104736328,250700
2025-04-16,141.5905608939007,143.3204010585323,140.12611166033892,142.5144500732422,307700
2025-04-17,142.9075815858467,143.26141115086992,138.2979890544082,141.364501953125,390600
2025-04-21,140.84358440349993,141.58072806053443,138.6812993423107,140.13592529296875,291600
2025-04-22,142.02301901433995,144.3032573833429,141.12861439560723,143.5169677734375,217800
2025-04-23,145.3352389782031,146.76039538307882,144.69638713943039,145.5121612548828,537000
2025-04-24,145.39420527769312,149.3944453214828,142.9665593386668,148.86370849609375,424500
2025-04-25,148.26416156627027,150.3773006417577,145.04038795490476,146.5048370361328,220500
2025-04-28,147.23215717254052,148.44106852493894,145.73820855180134,147.1338653564453,235200
2025-04-29,147.1928352219858,149.37478157519996,146.4556915890682,147.7235870361328,359900
2025-04-30,146.51467265670706,147.41890036144332,144.68655588487232,147.37957763671875,556200
2025-05-01,146.3444821710105,148.39498265695244,144.87562495462743,146.17689514160156,445300
2025-05-02,150.8200800146687,150.82993276495682,145.69382189987473,149.8441162109375,431600
2025-05-05,149.28220335297306,151.04682352421423,148.74001624656938,149.3314971923828,267600
2025-05-06,148.11893891054953,149.88354394348798,147.30070935640887,148.77943420410156,312000
2025-05-07,149.725822860132,150.97779905174502,148.4836843764286,149.24276733398438,318400
2025-05-08,149.63707537476432,152.37765900056235,149.0948883501129,151.184814453125,302500
2025-05-09,151.72704447410322,152.1115123665735,150.7708011185598,151.14541625976562,231600
2025-05-12,153.58036864826659,154.36902497347126,151.52001546847515,153.314208984375,352500
2025-05-13,154.0930052362217,154.0930052362217,151.02711471213084,151.46087646484375,339400
2025-05-14,151.4411368076829,151.4411368076829,148.82872891175197,150.3173065185547,350100
2025-05-15,150.18915951898913,153.2747551350197,150.18915951898913,152.7522735595703,278100
2025-05-16,152.97900445208893,154.92106425191258,152.39737629987306,154.78305053710938,278600
2025-05-19,154.14229995484683,156.0942128107709,154.09300611132787,155.83790588378906,185400
2025-05-20,157.98696796016725,157.98696796016725,155.6703079013984,156.28150939941406,388100
2025-05-21,154.6351912204993,155.413979709526,153.61980133414392,154.2310028076172,319800
2025-05-22,154.14228143082994,155.0295103380722,153.35362515641054,154.42816162109375,278900
2025-05-23,152.9198641452087,153.964827320536,152.07206127878644,153.72824096679688,260500
2025-05-27,154.8027705397575,156.1927754755183,154.46759652531446,155.916748046875,352800
2025-05-28,155.91675648544185,156.58710455060864,155.02951252332593,155.1675262451172,364400
2025-05-29,155.59142705479934,156.4195093421778,154.59575775990618,156.08433532714844,232100
2025-05-30,155.9956163554189,156.52795067401013,154.31971618579314,156.15333557128906,335100
2025-06-02,155.30554827866962,156.813861590753,153.05788752213863,154.6844940185547,349600
2025-06-03,153.9648340363994,155.20697261718047,153.78739426335522,154.043701171875,397800
2025-06-04,154.27045472728327,154.30002802372996,148.15837939391508,148.2766876220703,831900
2025-06-05,149.43008223768163,151.1651140408049,146.9359674396561,150.32717895507812,482400
2025-06-06,152.18050703516937,152.28894746522036,150.05115456510006,151.1355438232422,264700
2025-06-09,150.54407095295542,151.00739095090327,149.21321242568564,149.44981384277344,388400
2025-06-10,150.0018451088325,150.82992737444587,148.72028062593586,150.36659240722656,323500
2025-06-11,150.82994254149838,151.4115707359019,149.4498052933599,149.7652587890625,380800
2025-06-12,149.2624939294629,152.4269567686982,149.2624939294629,152.16079711914062,337200
2025-06-13,150.829935873921,151.53972501083467,148.59212803830783,149.0160369873047,361200
2025-06-16,149.09491396311157,150.7313581523707,148.97660573756926,149.5385284423828,346200
2025-06-17,148.52313648415543,149.11461743433793,147.01483824975645,147.33029174804688,379700
2025-06-18,147.0049610386582,148.59212630654162,147.0049610386582,147.5767364501953,383200
2025-06-20,148.15837561472694,148.6315784305405,146.8768260217442,148.16824340820312,570500
2025-06-23,147.3697197894407,151.75660037829923,147.3697197894407,151.6087188720703,356500
2025-06-24,152.37767518899636,152.37767518899636,151.0073757093355,151.68759155273438,246600
2025-06-25,151.67773528253588,152.33823056724884,150.60319885109388,151.74673461914062,264700
2025-06-26,152.3382342669548,153.37334468009956,150.94822928479945,152.2889404296875,658200
2025-06-27,152.4663887853865,153.89581975146424,152.04247985366143,153.6099395751953,643100
2025-06-30,153.81695259670582,154.28028757107535,152.4170949235091,154.21127319335938,315500
2025-07-01,154.2112909513434,157.53350328229894,153.7479709659874,156.75469970703125,338300
2025-07-02,156.7645627082632,158.2531403852606,156.399800331021,158.04612731933594,293500
2025-07-03,158.32215846518048,159.0713736966319,157.55322268905795,158.7559051513672,235100
2025-07-07,158.66717993630388,160.0670377135844,158.27285931033134,158.6770477294922,313900
2025-07-08,158.61790344414007,160.27408334755575,157.58280792717076,157.77996826171875,342700
2025-07-09,157.66165312376677,157.74052026260657,155.8576218513925,157.46449279785156,252800
2025-07-10,156.93213815728353,158.08554170949643,156.08433532714844,156.08433532714844,361600
2025-07-11,156.31107345675375,156.31107345675375,154.40845469060778,155.66043090820312,292000
2025-07-14,154.91121519337966,156.6856880276844,154.46760074539523,155.32525634765625,276600
2025-07-15,155.50272082835133,155.7590277372234,151.88477559675442,151.97349548339844,254200
2025-07-16,151.73688195391455,153.40291433439845,151.37213464305125,152.78184509277344,261900
2025-07-17,152.5452588316346,154.1915706701163,152.31851019393284,153.81695556640625,397700
2025-07-18,154.6253528670293,154.980247474883,152.7227188453121,154.16201782226562,243100
2025-07-21,154.20143682439874,154.44789098408017,153.03818041103906,153.2451934814453,205900
2025-07-22,153.8958183896831,157.09972209739536,153.0282950337299,156.91241455078125,449900
2025-07-23,157.7996815698846,159.55443403890214,156.88286424485372,159.36712646484375,450500
2025-07-24,159.11996916058192,162.4020082574344,157.96333091025235,159.9701385498047,431900
2025-07-25,160.19750774667867,161.22561221674488,158.94202169024894,159.14962768554688,296300
2025-07-28,159.35722424092228,160.12830639187274,156.35198291982778,156.88580322265625,308500
2025-07-29,157.23180681567746,157.7755224517839,155.4227248360997,157.0044403076172,388200
2025-07-30,156.98466705246165,157.11317068883088,153.1490167817767,154.9976348876953,580700
2025-07-31,153.99917438750097,155.55123391765005,153.4060273513415,155.3436279296875,679700
2025-08-01,155.1755793394096,156.31242693918023,139.47710868616434,139.73414611816406,1012300
2025-08-04,141.4838983520282,141.4838983520282,135.51295211602235,137.53952026367188,839000
2025-08-05,137.74710522774117,139.45733927138946,136.1159735436767,138.61705017089844,540800
2025-08-06,138.70603871474566,139.1508915064958,135.97759518556805,136.95626831054688,515300
2025-08-07,138.2018575966745,139.87254051260254,137.32203237332467,138.88397216796875,564000
2025-08-08,139.08167952516152,140.42613304538742,138.9729364064537,139.1409912109375,428700
2025-08-11,139.71437362843554,140.00105182700324,137.60871811175764,138.27105712890625,349500
2025-08-12,138.61704399688827,139.47709356461323,137.63835597942716,137.885498046875,286100
2025-08-13,138.09311785531034,139.82311250076222,137.65814535952828,139.81321716308594,729900
2025-08-14,138.58740244327777,138.58740244327777,134.8802710493718,136.758544921875,875800
2025-08-15,136.77831584476164,137.36156754391794,136.29391192878876,137.1342010498047,770500
2025-08-18,137.30225854285285,137.97449286968606,135.7798699097183,136.31369018554688,529500
2025-08-19,136.6893602194093,138.9136391735608,136.6893602194093,137.9942626953125,333100
2025-08-20,138.3105996295714,139.6352775807112,137.6680211600025,139.56607055664062,519200
2025-08-21,139.02239208429995,140.27786321045522,138.63685097516378,139.0322723388672,270400
2025-08-22,139.64516235050763,141.691506114476,139.5759704085548,139.81321716308594,356500
2025-08-25,139.35848463440877,139.99116778923627,137.3714676366746,137.964599609375,245800
2025-08-26,137.4802014096915,138.5577372418402,136.43230633558758,138.11288452148438,442900
2025-08-27,137.49997281529963,138.96306488334525,137.44066112579765,137.84597778320312,729100
2025-08-28,138.56762766903606,138.56762766903606,135.8292890396428,137.30226135253906,320800
2025-08-29,137.57905461233506,138.2710494362034,136.76843641419092,137.67791748046875,370700
2025-09-02,135.84906508939116,136.94637659553402,134.6133546133004,134.85061645507812,310600
2025-09-03,134.5243943101381,134.62324210292473,132.9031426817368,133.67422485351562,382300
2025-09-04,134.79130216014153,136.8969425133348,133.49626493537275,136.87718200683594,401800
2025-09-05,137.43077574465525,139.21020178510477,136.0566663464884,137.03533935546875,440800
2025-09-08,137.005687591299,138.3995726215184,136.1060867490136,136.71900939941406,616100
2025-09-09,136.679450849055,137.88550540934673,133.55558641382353,135.48329162597656,637100
2025-09-10,134.5738357125756,135.88863363727893,133.30846923010407,134.6924591064453,685100
2025-09-11,135.18672513791338,136.6992335433112,134.31678014184178,135.53273010253906,477500
2025-09-12,135.05820672958419,135.4832989752159,133.67421703664533,133.68409729003906,261300
2025-09-15,134.41564821558472,134.6133588811563,133.09097016346266,133.30845642089844,298000
2025-09-16,133.2491251648004,133.8719280705481,132.56702565416762,133.66433715820312,474800
2025-09-17,133.8719349467548,135.50308190645822,132.6560000017811,133.11073303222656,377400
2025-09-18,133.35786944137865,133.9608967611341,132.53737095397892,132.9624481201172,254800
2025-09-19,133.12062346030297,133.5555959668464,131.81570594067267,132.90313720703125,877200
2025-09-22,132.58677892796058,133.39741219498762,131.1533578735173,131.20278930664062,402100
2025-09-23,131.48947627590215,132.41873297707602,130.46137178622766,130.51080322265625,319700
2025-09-24,130.49101878119058,131.7860408722646,129.8385600670393,129.99673461914062,353300
2025-09-25,129.99674318999885,131.0050871706818,128.7808082948073,129.32452392578125,388700
2025-09-26,129.82867757462216,130.91609366176084,129.4629121280084,130.77769470214844,274400
2025-09-29,130.88643819323417,131.16323611324975,129.85833378808422,130.7579345703125,540600
2025-09-30,130.20434429084327,132.23089734514227,130.20434429084327,132.13204956054688,310400
2025-10-01,131.8058293753404,132.82405364216999,130.7974853623518,132.6065673828125,310100
2025-10-02,132.1320554290962,132.85370613455356,131.44006056877018,131.65753173828125,398500
2025-10-03,130.95565622479634,132.0529677443783,130.91610504183745,131.69708251953125,402000
2025-10-06,131.37087003963296,131.67732386738274,129.9077928534283,130.37242126464844,447100
2025-10-07,130.59978100603624,130.99520235978133,128.3260705111076,129.09715270996094,438800
2025-10-08,129.68039176507327,130.50090532374472,128.77091067319023,130.10548400878906,361300
2025-10-09,130.19446410955655,131.32143155875724,128.71161140879997,129.11692810058594,554200
2025-10-10,129.4431381350315,130.5008983927555,128.40513838295638,129.43324279785156,426000
2025-10-13,129.49257085556,130.83702438647268,128.67205733230725,128.7313690185547,311400
2025-10-14,128.55343940983934,129.5617834901798,127.56487092285874,128.31619262695312,337400
2025-10-15,128.31618340743444,128.8994351526004,126.39835826699053,126.6356201171875,438300
2025-10-16,126.97172413317051,128.01960419415852,126.38846487166605,127.6834945678711,352700
2025-10-17,127.68349224387053,128.61274891028023,127.37703846757714,127.8614273071289,339700
2025-10-20,128.12834444492697,128.6028530293001,126.55652438869629,128.51388549804688,240500
2025-10-21,129.11691341640903,130.2636563281568,127.64394113747322,129.07737731933594,311600
2025-10-22,129.1564481138655,130.59976453326686,128.49410913348765,128.5731964111328,357500
2025-10-23,128.73197123448563,130.50805690169727,128.65259098954968,129.75396728515625,378600
2025-10-24,129.73411268037526,129.87302431778892,127.54127703952456,127.87864685058594,489300
2025-10-27,128.1366224648553,128.89071205489756,127.45198112404552,127.7794189453125,521700
2025-10-28,127.74965710905877,128.10686063940022,126.47960347678546,127.1047134399414,413500
2025-10-29,126.29107194406481,126.50936382227088,122.46106236313027,123.34414672851562,651100
2025-10-30,123.0762548978033,124.54475159294849,122.08402453671503,123.39376831054688,702600
2025-10-31,114.39423553008093,117.18240033192052,102.42794018569283,115.108642578125,2758200
2025-11-03,115.18801418737364,115.18801418737364,107.44862223530946,112.24109649658203,1661000
2025-11-04,113.47146370471108,115.09872087701821,111.65568034301285,113.29286193847656,1029100
2025-11-05,113.44169462480497,115.13840756841266,111.89381017352693,114.67205810546875,896900
2025-11-06,114.12632587945619,116.05125508565277,112.91581127124762,115.24755096435547,880300
2025-11-07,115.32693339499808,116.01156716794395,113.79889779417432,115.31700897216797,697200
2025-11-10,115.08879219606841,115.86273063108003,113.11425598749823,115.47576141357422,514000
2025-11-11,116.05125494853503,118.58144524090463,116.05125494853503,117.35107421875,484800
2025-11-12,117.42052991643766,118.74019803055835,116.99387815530137,117.24193572998047,547500
2025-11-13,117.38085119077797,120.93303002263367,117.38085119077797,119.26608276367188,679400
2025-11-14,118.8394216459119,119.75227929014665,117.47014653473461,117.68843841552734,521200
2025-11-17,117.56937122538191,118.56160156840677,116.65652112662708,118.41276550292969,820200
2025-11-18,118.73028226930452,119.1767828797841,117.14270772067383,118.38299560546875,817400
2025-11-19,118.5814455351289,118.5814455351289,116.79542796312874,117.08317565917969,598900
2025-11-20,117.08317313835506,118.68066449610633,116.45807078667181,117.6586685180664,507400
2025-11-21,117.21216086173891,121.29022793939164,117.21216086173891,120.57582092285156,509100
2025-11-24,119.91102909425057,121.44898907258941,119.5042186116015,120.52621459960938,740000
2025-11-25,121.45891525209124,123.11593804438662,121.45891525209124,122.48091125488281,543600
2025-11-26,122.06416725085363,123.55251268958358,122.06416725085363,122.84803009033203,538000
2025-11-28,122.66943052847252,125.10039933060551,122.66943052847252,123.78073120117188,315700
2025-12-01,123.90971816318398,123.9890984046682,122.07409360703122,122.32215118408203,536800
2025-12-02,122.80834273936739,122.8976474041654,119.86142506313116,120.65520477294922,325400
2025-12-03,120.50637218565886,123.29454459847216,120.46668963362305,121.11163330078125,543100
2025-12-04,121.25053931737644,123.11593712141129,120.9826404679227,121.07193756103516,708000
2025-12-05,121.0421717426921,122.55036603254122,119.6828210814482,120.96279907226562,537000
2025-12-08,119.98048683677486,121.15131890116776,118.37307858523162,119.13709259033203,496600
2025-12-09,118.67074319979267,118.91880077653559,114.46368881786525,114.82089233398438,640300
2025-12-10,115.26739038159026,116.88473059087394,114.23546997686611,116.2596206665039,734700
2025-12-11,117.04348695770692,117.74796957239353,116.2497072483959,117.09310150146484,389700
2025-12-12,117.59913070053165,120.69489193216835,116.7358951926614,120.52621459960938,656400
2025-12-15,120.53613763713133,121.508519071394,119.54390735802136,121.37953186035156,588600
2025-12-16,121.71688801826957,122.88772006482098,118.59136108661724,121.87564849853516,644800
2025-12-17,121.16123927977195,123.63189054068698,119.14701303616661,122.66942596435547,567300
2025-12-18,122.70911937736454,123.15562755440962,121.08186229106413,121.66728210449219,457100
2025-12-19,122.38168448192317,123.36399795279324,120.31785116207733,120.44683837890625,1300400
2025-12-22,120.44683702770696,122.73888662712453,120.1293236305144,121.78634643554688,527800
2025-12-23,121.91534038479175,122.07409329724082,120.37738038293297,121.2406234741211,311700
2025-12-24,121.57797277960053,122.21299954160835,120.8139588087873,121.7962646484375,198000
2025-12-26,121.41922894554897,122.52060522415447,120.77427771310445,122.29238891601562,306000
2025-12-29,122.33207341633238,123.34414498172643,121.36960882339034,122.25269317626953,400200
2025-12-30,121.8458854019756,123.3342308707125,121.46883303835433,121.78634643554688,289800
2025-12-31,120.57582164498164,122.37176361957204,120.40714431232067,121.01240539550781,314300
2026-01-02,120.79411100995517,122.04432327040651,119.84157085869765,121.58789825439453,295100
2026-01-05,120.81396333104647,123.61205247154165,120.81396333104647,122.04432678222656,435700
2026-01-06,121.2703893294616,121.89549169761267,119.17678277613919,119.62328338623047,777200
2026-01-07,119.73242778357526,121.0024813489251,116.69620550577852,119.50421905517578,478500
2026-01-08,118.98826090452039,122.41146012961788,118.59136725333443,121.48868560791016,330000
2026-01-09,121.13148146291526,123.9990265337246,120.51629592819934,122.88772583007812,429100
2026-01-12,123.0365583546262,124.32646078477775,122.02448676997972,124.15777587890625,477300
2026-01-13,124.07840343065625,124.46537264637453,121.58790323017156,122.54044342041016,351900
2026-01-14,123.1457089980577,126.1720145851002,123.1457089980577,125.86441802978516,611700
2026-01-15,126.15215809530929,126.23153833510459,123.5525120178855,124.13793182373047,381000
2026-01-16,123.03656046752509,124.22723383109965,122.28246329986567,123.74104309082031,363400
2026-01-20,123.92956647771405,124.55466884396232,122.4809111423571,122.85795593261719,275100
2026-01-21,123.34414579788033,124.64397263463209,122.93733531257004,124.03871154785156,421000
2026-01-22,124.07840219082979,125.42783600604635,123.09608874217598,123.5029067993164,369700
2026-01-23,123.37391303470616,125.29884225734148,122.90757114819523,125.0210189819336,429500
2026-01-26,125.43775721229031,126.00332820078921,124.12801347207618,125.36830139160156,315400
2026-01-27,123.9791728132312,125.3186897727715,123.205234391347,123.77080535888672,303100
2026-01-28,123.235006777915,124.09824991001042,122.29239097089199,122.7388916015625,347800
2026-01-29,123.32430960117436,124.30661551602421,121.63751348474041,122.88772583007812,386000
2026-01-30,121.95503612712301,124.03871835108907,121.70697853926713,123.97917938232422,512700
2026-02-02,123.23499750184895,124.93171793896286,123.23499750184895,123.860107421875,489100
2026-02-03,122.94725978548665,126.93602225021577,122.72896790883826,123.66165924072266,658700
2026-02-04,125.21552867481128,129.90700134775133,124.20949930267037,128.7216796875,589400
2026-02-05,127.16782066467043,128.5722782146923,121.48028130551128,123.49234008789062,2144200
2026-02-06,127.02836268310486,135.45509216979158,127.02836268310486,133.7816925048828,1045700
2026-02-09,133.05457384055362,139.02101804829903,132.72587004959905,137.9253387451172,1043400
2026-02-10,137.26793457923543,140.37565748193367,137.26793457923543,139.61865234375,622100
2026-02-11,138.48313331396238,139.99715874839507,138.05483198642824,139.4592742919922,584300
2026-02-12,139.60869173387061,141.44145054391814,138.84171623230802,139.95730590820312,572700
2026-02-13,139.9573151020267,142.3677944950846,139.85771755943315,142.01918029785156,471900
2026-02-17,138.71222079286514,143.055071512211,138.71222079286514,141.0928192138672,614700
2026-02-18,140.9135352437976,142.54708376856578,140.2860084572567,141.1625518798828,582000
2026-02-19,141.0928230678908,142.7562676088946,140.4752666602554,142.59689331054688,525500
2026-02-20,142.55704525117903,144.56910401516237,141.44145553591065,144.47946166992188,664500
2026-02-23,142.9255958993581,145.6647789342487,142.5670113304762,145.14682006835938,513500
2026-02-24,145.49544486452967,146.33213709933392,143.28417595914058,143.57302856445312,429800
2026-02-25,141.8498473766502,143.0949306198296,139.87762457633954,142.1187744140625,348900
2026-02-26,142.95547535989397,143.35389589996325,140.44538340090327,141.23226928710938,331300
2026-02-27,140.97329664666827,143.44353741820976,140.44538259466083,143.1447296142578,344600
2026-03-02,142.43751420451355,142.78614357053576,141.06293752550724,142.1088104248047,335000
2026-03-03,140.08679425249235,140.76412738697488,136.38142559574294,139.2102508544922,347300
2026-03-04,138.79191754238275,138.9612470419286,135.47501391314069,136.50096130371094,389000
2026-03-05,135.46505150535157,135.80371048641027,133.88130933030985,134.20004272460938,452300
2026-03-06,133.47291651624107,133.47291651624107,130.48471689274314,131.5604705810547,398500
2026-03-09,130.45484354440993,133.45299853256722,127.02837201579013,133.22390747070312,545700
2026-03-10,132.82547764917305,133.60240832546756,130.88313575966777,131.6102752685547,503100
2026-03-11,131.2815812945587,132.75575561111177,129.5284943463408,131.50071716308594,563800
2026-03-12,130.7536581494707,132.26766833775483,128.13399830193273,128.35313415527344,620600
2026-03-13,129.6380511924889,129.6380511924889,126.55025410703881,128.14395141601562,660600
2026-03-16,128.97069022910543,130.8931065380538,125.50438295551326,128.54238891601562,370700
2026-03-17,129.45876833048925,130.50464122844355,127.73557748644285,128.99061584472656,276700
2026-03-18,123.89075860801685,126.08210964583039,120.94240244020646,123.73139190673828,910500
2026-03-19,122.52615308632394,124.32903117833895,120.97228404186016,123.48237609863281,518500
2026-03-20,123.77123411184346,123.77123411184346,119.83676660084556,120.58381652832031,1481500
2026-03-23,123.02418368013113,125.84304628604973,122.50622481021608,123.65170288085938,455200
2026-03-24,122.67556308818467,124.72745780194329,122.38670286935901,123.66166687011719,405000
2026-03-25,124.94659356774676,126.07214606142944,123.22339504970952,125.3250961303711,337200
2026-03-26,124.72746089618293,126.83911722505529,123.6317891558115,124.19954681396484,442100
2026-03-27,123.45249678230496,123.72143142045898,121.28107129127055,121.51016235351562,381400
2026-03-30,122.07791483255923,123.45249154525831,120.62365857080745,122.87477111816406,562000
2026-03-31,123.90072145898677,126.46061226934556,123.1038651540704,125.52430725097656,557800
2026-04-01,126.83910993884153,128.13399948450484,125.83308820196113,126.25143432617188,380200
2026-04-02,124.64777023751822,126.5900970135599,123.76127159620845,125.51435089111328,297500
2026-04-06,124.0999305830527,125.6936431780852,124.0999305830527,125.51435089111328,461100
2026-04-07,124.82706080661809,126.6697824199569,124.30910953992999,125.11592102050781,376900
2026-04-08,130.86323514521675,132.1481543754263,127.64592907491694,131.50071716308594,645200
2026-04-09,130.70386349661462,131.91906599267529,126.83912013545304,130.88314819335938,424100
2026-04-10,131.7298075164679,132.178034445579,130.3353203595067,130.98275756835938,407400
2026-04-13,130.28551770076956,131.89914077103793,127.07818194963497,131.59036254882812,396300
2026-04-14,130.71381054193466,132.197955189354,130.45483870763653,130.4946746826172,315500
2026-04-15,130.29547082253353,130.51460669263554,128.0941721257409,129.14002990722656,407100
2026-04-16,126.40084558822308,129.81735412824597,126.40084558822308,127.78536987304688,393800
2026-04-17,129.14002424182965,131.7796097617975,129.14002424182965,130.11618041992188,401100
2026-04-20,130.05641512792803,131.47082778766443,129.1499909308814,130.405029296875,403600
2026-04-21,130.18589466096142,131.72980084865796,126.1916732788086,126.1916732788086,310200
2026-04-22,126.77935427393615,126.77935427393615,122.47634691200882,124.06009674072266,458900
2026-04-23,124.88682675562279,126.93872910578784,123.95052932532681,124.44856262207031,440800
2026-04-24,123.9206456254592,123.9206456254592,122.08787918491913,123.5919418334961,440900
2026-04-27,123.55209914216728,125.73348737793874,123.05406585359005,124.23938751220703,359700
2026-04-28,125.62392082821759,126.15183490401432,123.23335949687649,125.2752914428711,354300
2026-04-29,124.64776713863216,125.4047798425139,122.30701227202618,122.41658020019531,448400
2026-04-30,122.94449532386469,125.58407321741664,121.40058912214994,123.19351196289062,764800
2026-05-01,126.70962950793603,127.97463072857443,117.4362520229959,118.55184173583984,989400
2026-05-04,118.21317963909578,121.27110367417347,116.9979772200526,120.12562561035156,739600
2026-05-05,120.42445055667139,123.22339520339091,120.34476340674007,121.55000305175781,628600
2026-05-06,123.18000030517578,126.38999938964844,121.66999816894531,122.62999725341797,917000
2026-05-07,122.94000244140625,126.47000122070312,122.56999969482422,125.11000061035156,749700
2026-05-08,125.2300033569336,125.86000061035156,120.38999938964844,120.98999786376953,794900
2026-05-11,121.22000122070312,121.22000122070312,119.44000244140625,119.95999908447266,706100
2026-05-12,120.44999694824219,120.86000061035156,117.13999938964844,118.05000305175781,696600
2026-05-13,118.0,118.75,116.43000030517578,117.87999725341797,679500
2026-05-14,118.7300033569336,120.16000366210938,117.04000091552734,117.98999786376953,531000
2026-05-15,117.91000366210938,117.91999816894531,114.47000122070312,114.66999816894531,447000
2026-05-18,115.5999984741211,117.31999969482422,115.16999816894531,115.80999755859375,433100
2026-05-19,115.88999938964844,116.04000091552734,112.44999694824219,113.61000061035156,575800
2026-05-20,114.06999969482422,115.44999694824219,111.55000305175781,115.26000213623047,562600
2026-05-21,116.5,116.5,112.7699966430664,115.51000213623047,345600
2026-05-22,115.80000305175781,116.80000305175781,114.70999908447266,116.2300033569336,405800
2026-05-26,116.19999694824219,116.97000122070312,115.37000274658203,116.37999725341797,344500
2026-05-27,116.94000244140625,118.11000061035156,114.7300033569336,115.30000305175781,464000
2026-05-28,114.80999755859375,116.33999633789062,113.3499984741211,115.98999786376953,510100
2026-05-29,115.05999755859375,117.26000213623047,113.75,115.8499984741211,559600
2026-06-01,114.69000244140625,115.12999725341797,112.02999877929688,112.37999725341797,706800
2026-06-02,111.94999694824219,113.05000305175781,111.23999786376953,112.18000030517578,452400
2026-06-03,111.69000244140625,114.0199966430664,111.69000244140625,112.52999877929688,372600
2026-06-04,114.94999694824219,115.76000213623047,111.54000091552734,112.55000305175781,337600
2026-06-05,113.08999633789062,114.58999633789062,111.9800033569336,113.36000061035156,466300
2026-06-08,112.26000213623047,112.63999938964844,110.94999694824219,111.94000244140625,422200
2026-06-09,113.27999877929688,116.1500015258789,112.66999816894531,115.9000015258789,444400
2026-06-10,116.1500015258789,116.55000305175781,113.37000274658203,115.88999938964844,83957
