Date,Open,High,Low,Close,Volume
2023-06-16,111.25608649771847,112.75681473831688,110.97710364846094,112.6990966796875,975300
2023-06-20,112.43935080762263,112.50669098924244,111.31380462646484,111.31380462646484,297000
2023-06-21,110.76546213036721,110.88090558835343,109.11080926354511,109.30321502685547,317800
2023-06-22,109.62066662197516,109.72648795201908,108.08145728433067,109.71687316894531,266200
2023-06-23,108.61056833130178,109.40903573049138,107.81210093211217,108.54322814941406,366000
2023-06-26,108.76448008614898,110.02471391118388,108.76448008614898,109.29358673095703,142300
2023-06-27,109.50524179545765,110.45762652448515,108.92803915179037,110.3614273071289,218300
2023-06-28,110.44800572673412,110.44800572673412,108.20653531126023,109.20701599121094,204800
2023-06-29,109.12042837387446,110.97710173626429,108.27386505726994,110.41913604736328,225900
2023-06-30,110.84242323774862,111.86214808391983,110.47685596117455,111.4581069946289,279800
2023-07-03,111.02520156481067,112.57402566633326,111.02520156481067,112.11226654052734,85700
2023-07-05,111.22723412051471,111.22723412051471,108.4758939551834,108.64905548095703,384200
2023-07-06,107.9852795999747,108.68754789937243,107.38883265171268,108.1969223022461,277700
2023-07-07,108.37007152236167,110.94825013592458,108.31234612133264,109.46675872802734,333400
2023-07-10,109.00499442816958,110.91939335472682,108.71639677529014,110.12092590332031,248000
2023-07-11,109.96699400151331,111.1695024910392,109.06271260826982,111.12140655517578,226700
2023-07-12,112.15075804421535,113.08390584398397,111.37152752074805,112.42974090576172,199400
2023-07-13,112.41049798976871,112.91074565761176,112.13151512491966,112.56442260742188,190200
2023-07-14,113.21859488489058,114.3248969529102,112.26620276543113,113.853515625,271600
2023-07-17,113.901608790538,114.99829597658342,112.70872239053817,114.72893524169922,234200
2023-07-18,114.48843831688549,115.7967682319705,114.19021119978753,114.55577850341797,189100
2023-07-19,114.23830222496996,114.87323020662586,113.81501690386602,114.58462524414062,247200
2023-07-20,115.22918005668726,115.65246542204783,114.34413551050594,114.79627990722656,175800
2023-07-21,115.10412706121498,115.4889312891488,114.35376285348565,115.28690338134766,184300
2023-07-24,115.46005920763793,115.91220360263762,114.19983257951267,115.18108367919922,163400
2023-07-25,115.13298219212088,116.518274429924,114.76742222471391,115.97954559326172,250700
2023-07-26,115.98920106005731,116.22086850035656,114.69570917552166,115.78648376464844,306900
2023-07-27,115.89267286358223,116.58768258896228,114.61849082191067,115.00460815429688,407800
2023-07-28,118.23833405004136,122.58213772792976,117.64950674009485,119.48355865478516,513000
2023-07-31,119.23256614634282,119.62833841068284,116.63594217392378,117.24407196044922,746500
2023-08-01,117.03171151335569,118.24797849712147,116.5587216614483,118.1900634765625,365300
2023-08-02,117.22479710541414,118.08390444877755,115.81547486389019,117.99702453613281,329200
2023-08-03,117.30198526491023,118.46999212502719,116.52975802792562,116.61663055419922,195900
2023-08-04,116.43324261303452,117.8908247118192,116.29810264843958,116.45254516601562,116500
2023-08-07,116.53940392376846,117.43712344833173,116.32703905662402,117.07996368408203,140300
2023-08-08,115.91197623422308,117.18615820393119,115.55481643313685,116.91587829589844,270100
2023-08-09,116.91588728463365,119.10709159142796,116.33670759194904,117.60124206542969,287500
2023-08-10,117.57227564334059,119.28083498646278,117.57227564334059,117.98735046386719,216000
2023-08-11,117.29235454645382,118.94299906430355,117.29235454645382,118.35417175292969,226500
2023-08-14,117.79428541805788,118.72096252441406,117.35990805602609,118.72096252441406,145700
2023-08-15,118.37345297215884,118.66304277835748,117.74602066635293,117.8521957397461,249000
2023-08-16,117.5047040691571,118.88506846613971,117.27302926695963,117.32129669189453,291100
2023-08-17,117.72672381164278,118.4024309795417,117.3985288684787,117.41783142089844,186600
2023-08-18,117.16684484694098,119.13603644494522,117.16684484694098,119.01055145263672,443100
2023-08-21,118.87542879112813,120.13995594958244,118.78854888799084,119.48355865478516,358800
2023-08-22,119.57042216370789,121.34655144459086,118.49895014757142,118.6823501586914,429600
2023-08-23,118.78854644703752,119.27119129021848,118.06457918226604,119.10709381103516,305000
2023-08-24,119.20360799225472,121.1052296403174,118.33484589865057,120.76737976074219,278400
2023-08-25,121.21141540913233,123.24817706491329,120.64189807716028,123.113037109375,493000
2023-08-28,123.19992236538391,125.08224170838267,123.19992236538391,124.91814422607422,331900
2023-08-29,125.29458729143836,127.37961626700836,124.90846263162,127.24447631835938,472400
2023-08-30,127.77537379799342,128.63448091355718,127.1286315630544,128.27732849121094,298900
2023-08-31,128.65381103726338,129.08818845980795,127.64991622229032,127.95880126953125,305800
2023-09-01,128.4800240502506,129.14606135867925,127.92015443502954,127.94911193847656,252000
2023-09-05,127.10933191058002,127.39892174655428,122.93928835166383,123.14199829101562,325300
2023-09-06,123.3543672903448,123.56672483060133,121.81955289196907,122.02227020263672,291100
2023-09-07,121.90640939193572,122.75586148363936,120.79632501630161,121.0086898803711,328600
2023-09-08,121.15349629318462,122.27322836758205,120.77703394911717,120.96043395996094,238800
2023-09-11,122.58211525615182,123.48948977030165,122.02225292626916,122.60142517089844,333500
2023-09-12,121.73266457200782,122.87170652466514,121.06661243223265,122.1380844116211,258000
2023-09-13,121.41413652697216,122.19601882240913,120.76739419952243,121.01837158203125,279300
2023-09-14,121.636140247531,122.88136467115167,121.636140247531,122.360107421875,217900
2023-09-15,122.09948930636727,122.78484409398824,120.8253072260088,121.55892944335938,589200
2023-09-18,121.97400142934676,121.97400142934676,120.58398196909076,121.27899169921875,175100
2023-09-19,121.32724871079844,121.32724871079844,119.7538219944691,120.96043395996094,218600
2023-09-20,121.47203852211109,121.72301587769854,120.2364690247192,120.30403900146484,206200
2023-09-21,120.01446098001375,120.03376353212249,117.94874176933433,117.97769927978516,335700
2023-09-22,118.08388014980025,118.63409493473912,117.87151525656503,118.4217300415039,341200
2023-09-25,117.755680884051,119.8214001203192,117.25373351267645,119.73452758789062,258800
2023-09-26,119.24222921346016,119.90828142821822,118.95264673738208,119.30979919433594,547000
2023-09-27,119.73452920562256,120.13029413299238,118.6051420813391,119.23257446289062,362400
2023-09-28,119.56076662731212,121.2789808821135,118.98159435872148,121.11488342285156,219300
2023-09-29,122.0994808328885,122.42768313020652,120.45849144002428,120.69981384277344,330900
2023-10-02,120.20751791833786,121.12454749681847,119.68626062800243,120.70947265625,244100
2023-10-03,119.71520247847242,120.96042683728476,118.23831069800823,118.6051254272461,236300
2023-10-04,119.26153337850327,120.33300542683779,118.08387888468876,119.91793060302734,208200
2023-10-05,119.65729213678843,120.5936241817703,118.53756008460046,119.45458221435547,466700
2023-10-06,119.31945619225938,122.29255013075931,119.10709128742714,122.02227020263672,491700
2023-10-09,121.45273229316045,122.80413915172828,121.32724730145394,122.53385925292969,275700
2023-10-10,122.82344297911708,124.14589234292649,122.11878571629325,122.14774322509766,322000
2023-10-11,123.10337829589844,123.26747575611641,122.25392612132153,123.10337829589844,212900
2023-10-12,122.8041286212194,122.97788102191556,120.7190998128655,121.06660461425781,189300
2023-10-13,121.62648405864162,122.2732262936777,121.047311797944,121.59752655029297,324900
2023-10-16,122.93927591409262,123.00684588704061,121.79057900940215,122.31183624267578,275200
2023-10-17,121.63615301588416,123.88527234319643,121.63615301588416,123.05513000488281,314400
2023-10-18,122.4663049500312,123.23853227905134,121.8967802064746,122.37942504882812,287300
2023-10-19,121.70371751008852,123.0454694977166,121.03766531314531,121.3658676147461,443900
2023-10-20,121.55892290885227,122.08983514903522,117.69776440446827,117.97769927978516,446500
2023-10-23,117.49505685595796,118.88507630246588,117.00275707455714,117.2826919555664,379000
2023-10-24,117.89082303186629,119.47389747848429,117.4950581024996,119.05882263183594,312100
2023-10-25,118.57456478321305,119.88205053938309,118.05156900291749,118.5164566040039,431300
2023-10-26,117.44141263972791,121.44135246402949,117.44141263972791,119.54307556152344,576000
2023-10-27,119.58182197378237,119.94016561837014,116.5697580258713,117.354248046875,364000
2023-10-30,118.08063424721645,118.46803938652907,117.04432974830978,118.32276153564453,283100
2023-10-31,118.65204893878834,119.02007972748278,117.99346247171451,118.41960144042969,422900
2023-11-01,118.2646378957484,119.54306951601366,117.78038338217613,119.0588150024414,360500
2023-11-02,119.82394517295023,120.37599505580931,119.10725051904181,119.6883544921875,384300
2023-11-03,120.51158420536397,122.003089063941,120.51158420536397,121.4026107788086,278000
2023-11-06,121.32511762035035,121.7706382570684,120.8214961980398,121.24764251708984,173500
2023-11-07,120.69559532283566,121.05393892700246,120.25976183544348,120.62779998779297,205000
2023-11-08,120.94740785382807,121.53819896716833,120.49221480588676,121.17985534667969,175800
2023-11-09,121.7319040679417,121.7319040679417,120.16291675704831,120.47283935546875,118600
2023-11-10,120.32756674184381,121.82875878037683,119.98859003966672,121.7609634399414,195600
2023-11-13,121.44135499845274,121.52852465947475,120.45347897141063,120.60843658447266,183100
2023-11-14,121.98371434677951,123.83357021629412,121.36386913343608,123.82388305664062,267400
2023-11-15,123.79483004673568,124.74397219433762,123.33962959784179,123.68829345703125,388600
2023-11-16,123.63018225230408,124.56962982804686,122.84568489375135,123.53333282470703,217000
2023-11-17,124.5115175822605,125.01514641193484,123.59143696643567,123.90135955810547,162700
2023-11-20,123.43647327736079,123.63017951740747,122.44859731510405,123.3105697631836,213900
2023-11-21,123.44614744361681,124.25969878790941,123.19433305262902,123.8819808959961,160600
2023-11-22,124.40497096483674,125.13135267320862,123.34929976212196,124.52120208740234,174800
2023-11-24,124.90861400007235,124.90861400007235,124.06601585130784,124.48246765136719,65900
2023-11-27,123.79483329712718,124.2597209179653,122.85537828459665,123.00065612792969,367500
2023-11-28,123.00064589587653,123.01033305506304,121.53819520248676,121.6544189453125,218000
2023-11-29,121.68348364866526,122.4195526391636,120.98615590915504,121.42198944091797,331800
2023-11-30,121.49945624960122,123.12655173420484,120.879611054432,122.89411163330078,301000
2023-12-01,122.43891423680424,124.49214872577235,122.43891423680424,124.0660171508789,218300
2023-12-04,123.43647582266271,124.8214514528582,122.89411311762335,124.37593078613281,192000
2023-12-05,124.21127806681955,124.6374243872842,121.91590909859478,122.02244567871094,178000
2023-12-06,122.40985460010225,123.29120135619293,121.91591293032465,122.39048767089844,179500
2023-12-07,122.26460182106128,123.10720750225647,122.022474516146,122.50672912597656,254000
2023-12-08,122.38080197837209,123.48490168465685,121.66410736304317,123.3105697631836,265800
2023-12-11,123.25246079430477,123.65923281208454,122.36142687408662,123.55269622802734,338000
2023-12-12,123.6301827914491,124.06601630124297,122.69072782247173,123.46553802490234,210300
2023-12-13,123.1749792246949,124.92798560063507,123.1749792246949,124.54057312011719,425000
2023-12-14,125.01514938630581,125.91585570519116,122.88442505238625,123.38805389404297,412900
2023-12-15,123.15562026534607,124.53090140906804,122.0030920759156,122.01277923583984,713000
2023-12-18,122.7197829699494,123.20403750335895,121.91591867109649,123.04907989501953,240500
2023-12-19,123.68828729734022,124.09506670556218,122.06119183186492,122.25489807128906,659100
2023-12-20,122.05151063829354,122.94254460492192,121.50914791967111,121.61568450927734,346400
2023-12-21,122.26459447296418,122.26459447296418,120.91836732967452,121.94499206542969,421900
2023-12-22,122.41955104807825,123.03939627755607,122.14836968382394,122.29364013671875,312200
2023-12-26,122.16772810971344,122.87474295084685,121.63504518905556,121.86749267578125,274700
2023-12-27,122.1483674460001,122.48734414510773,121.09268870976447,121.3348159790039,283100
2023-12-28,121.04425844496743,121.8384355318541,120.48252144984001,121.25732421875,343600
2023-12-29,121.24764780949722,121.41229257117608,119.66897336181908,119.72708892822266,313500
2024-01-02,118.74889703904802,120.19197347679686,118.43897443384415,119.01039123535156,313100
2024-01-03,121.20889885443795,123.25245336857849,119.27188091793599,121.41228485107422,531700
2024-01-04,121.23796483552567,121.95465947338585,120.22102736343857,120.30819702148438,353300
2024-01-05,119.88204634088143,120.45347050993072,119.11692332182685,120.288818359375,423000
2024-01-08,120.16292355411841,121.21860231382453,118.51646104234021,120.4341049194336,352400
2024-01-09,119.81424996434863,120.71496364841524,119.0975553585858,120.70527648925781,250300
2024-01-10,120.5406277049511,121.4703954463117,120.31787477572925,121.24764251708984,279600
2024-01-11,121.43166549949392,122.97159877535763,121.00552652992823,122.84568786621094,323100
2024-01-12,123.86262311015058,123.94010560835483,121.9546590794131,122.44860076904297,231700
2024-01-16,121.91592138408514,122.82632229167827,121.55757775043605,122.81663513183594,257500
2024-01-17,121.97402717748967,123.26213854603338,121.92559877129759,122.70040893554688,336900
2024-01-18,123.31057128043204,125.91585558616275,122.33237507628849,125.07325744628906,444200
2024-01-19,125.62532076349432,127.32021167365423,124.49215212153315,126.68099212646484,418000
2024-01-22,126.77784750777892,127.65919442058058,126.44855792880165,127.05872344970703,266200
2024-01-23,127.64949663077542,127.69792503926627,126.2257871351414,127.67855072021484,217800
2024-01-24,127.95941205571333,128.12405682223405,126.42916597018038,126.66161346435547,294400
2024-01-25,127.87224954144052,128.2112336225098,126.27421550960058,127.11681365966797,332300
2024-01-26,127.53323798981451,128.41458458813295,127.26205669468148,127.5526123046875,219900
2024-01-29,126.92311919612955,128.41461669224083,126.3807564702709,128.0853271484375,187800
2024-01-30,127.87225396638219,128.89887123722548,127.48485624170483,128.0853271484375,228400
2024-01-31,128.60020682155707,128.98882404597518,125.48163327584514,126.1811294555664,537500
2024-02-01,126.74465397798895,127.37613678695742,125.91885508235073,126.78350830078125,298800
2024-02-02,126.25888510375799,126.98752590812718,125.02504919090698,126.3948974609375,344800
2024-02-05,125.45252075117756,127.7064419292571,124.4032762146761,126.9292221069336,319500
2024-02-06,126.76404086060465,127.6578382954497,125.61765333250959,127.39553833007812,369700
2024-02-07,127.66757043860348,128.64880125247385,125.6856594170207,128.0464630126953,393000
2024-02-08,127.89101966708147,130.99988380062553,127.79386164056334,128.3573455810547,620700
2024-02-09,128.34763875632336,135.24544372439263,127.76472023183752,135.0025634765625,650900
2024-02-12,135.19687008272106,136.4695602600504,133.5938514887977,133.69100952148438,491300
2024-02-13,132.79721865694546,133.41899155451992,131.13591108923504,132.05885314941406,275900
2024-02-14,132.37944687307478,133.5452839390653,131.32049253489302,133.26353454589844,335000
2024-02-15,133.26352772923445,133.88530054798204,130.7375821386744,131.19418334960938,471400
2024-02-16,131.51480751987208,134.06991277521306,131.19420377563176,133.5841522216797,453900
2024-02-20,133.23441009161263,136.1489735454098,133.04981870099434,135.7117919921875,373000
2024-02-21,135.1191419156268,136.11980735566468,135.03170858379454,136.012939453125,276300
2024-02-22,136.46957990444227,138.3640432206591,136.0809773662263,137.44110107421875,295700
2024-02-23,137.92684167751443,138.00456513874505,136.59586261149656,137.33421325683594,190300
2024-02-26,137.47022831952583,138.0142777346372,136.79016655063663,137.87826538085938,199200
2024-02-27,137.87823606201974,138.13082614411428,135.81861662156606,136.3140869140625,244600
2024-02-28,135.67288950179886,137.21761901910057,135.36201051839788,136.4112548828125,189600
2024-02-29,136.62499564942553,137.59651659734325,135.8477759262447,136.4598388671875,250600
2024-03-01,135.89635016734115,136.78042293249038,135.58545635929062,136.29466247558594,151400
2024-03-04,136.68329367940922,138.07256161225055,136.55699120397486,137.91712951660156,260300
2024-03-05,138.21830138260887,139.13153352462706,137.7033964215534,138.461181640625,190200
2024-03-06,138.85947150350745,139.54925784719796,138.42229007474432,138.99549865722656,184000
2024-03-07,140.3847801035931,141.0065529311518,139.74357270585753,140.53050231933594,250100
2024-03-08,140.58881247786712,140.9385606359244,138.89836057655117,139.0149383544922,185200
2024-03-11,138.72347568915376,139.29668433987692,137.93654605884916,138.67491149902344,226700
2024-03-12,138.73320167882696,138.78178069364364,137.4507868439898,138.35430908203125,242200
2024-03-13,138.92750291804336,138.92750291804336,136.9164473335974,137.13990783691406,336800
2024-03-14,137.33421990117986,137.5868100442241,136.36269882514554,136.9164581298828,235200
2024-03-15,136.05178467736658,138.3542993647007,135.76034025740415,136.9844512939453,599500
2024-03-18,136.91642916369148,137.27590196625363,134.9733874226949,135.2939910888672,299700
2024-03-19,134.92484757362786,136.3238402513451,134.92484757362786,135.53689575195312,253000
2024-03-20,135.6534968065034,136.08096846512183,135.1774461277264,135.9838104248047,220000
2024-03-21,136.31411913042012,137.56738961386023,135.33288818521672,137.1204833984375,255800
2024-03-22,137.9657000290801,138.3931716662274,137.0330481155177,137.5576629638672,276000
2024-03-25,137.17872485822463,139.9475648834956,137.1495804221043,138.88861083984375,316300
2024-03-26,138.76233765022266,140.20018449075258,138.55831173014377,139.12179565429688,314200
2024-03-27,139.57841110454743,141.01625793912805,139.57841110454743,140.54022216796875,218200
2024-03-28,140.69566694081686,141.21057184317644,139.55897441755064,139.79214477539062,247800
2024-04-01,139.6949981759376,139.6949981759376,138.07255988358438,138.2377166748047,204400
2024-04-02,137.80053208284255,137.80053208284255,136.3918296283509,136.625,202600
2024-04-03,136.66384822637758,137.16904326365426,135.88662851308266,136.8678741455078,258700
2024-04-04,137.79082770836482,138.68462526566978,136.95531904023974,137.71310424804688,403600
2024-04-05,137.35364110181234,138.69432997574083,136.9358793711853,137.69366455078125,288300
2024-04-08,137.63539087239522,138.32517736811184,136.39184506466097,136.5084228515625,312500
2024-04-09,136.42095479960858,137.08159668050206,135.39114507938174,136.3140869140625,242600
2024-04-10,135.02198614707606,136.2266775391274,134.50708119646376,135.43002319335938,200700
2024-04-11,135.2940122618255,136.05179747346585,134.50708260544775,135.167724609375,265300
2024-04-12,134.23505539317335,134.9928405906335,132.08800227511426,133.2926788330078,299200
2024-04-15,134.66251781624504,135.82833997705987,133.90473267050376,134.26419067382812,319600
2024-04-16,133.86586195888154,135.4203013711966,133.44811507605868,134.64308166503906,281700
2024-04-17,134.9248215203084,135.50772514064496,134.4099166514401,134.45848083496094,565400
2024-04-18,134.44878861647487,135.46888861629466,134.28363182781587,135.14828491210938,246600
2024-04-19,135.09970992098616,135.93521858652753,134.8179753494098,135.37173461914062,276600
2024-04-22,135.57577711564213,137.13020203436653,135.28431781080755,136.3238525390625,298800
2024-04-23,135.78950821017926,137.1399219453386,135.54662793533598,136.15867614746094,417200
2024-04-24,136.36327776431676,137.28892764322538,136.06122500182607,136.42173767089844,559200
2024-04-25,136.25608912785975,137.6299563309936,135.3596692495126,136.58737182617188,694400
2024-04-26,138.36076128932666,144.7039147819686,138.26331818639707,139.65667724609375,489500
2024-04-29,141.1864289502725,144.22647823824295,140.670013228058,142.62850952148438,676700
2024-04-30,142.004909646234,142.35568398559658,140.36795777329885,140.6797637939453,585100
2024-05-01,141.2741247498313,143.43723060207003,140.87462887898343,141.6541290283203,359600
2024-05-02,142.02439483195232,142.96953644520997,141.56643900417882,142.1802978515625,356500
2024-05-03,143.33979979107895,143.35929138510804,141.12797220227156,143.0474853515625,303300
2024-05-06,143.97311219834887,145.25928957827287,143.38849828106964,145.22030639648438,260200
2024-05-07,144.51880499832362,146.52600814534517,144.51880499832362,145.88291931152344,392900
2024-05-08,145.8829062711246,147.003427580538,145.64905175216694,146.92547607421875,223500
2024-05-09,147.13008393869177,147.8413709100011,144.82082843851902,145.25929260253906,299100
2024-05-10,145.13262025255216,145.18134179717063,144.29466023538959,144.68441772460938,186300
2024-05-13,144.72341108332498,145.6490611203431,143.0962123120397,144.080322265625,167500
2024-05-14,144.49928507792563,144.5090234397785,143.690555012297,144.10952758789062,137600
2024-05-15,144.16799714533659,144.53824816281193,143.00849281449825,143.5054168701172,211100
2024-05-16,143.5931019397819,144.1095175689133,142.6771904865369,143.7587432861328,235500
2024-05-17,144.06083161219536,144.3726227596562,143.3592829457471,143.88543701171875,169500
2024-05-20,143.80748238942644,144.60647413522753,143.27157510477068,144.37261962890625,163400
2024-05-21,144.14850961965013,144.86953495193305,143.3202879692016,144.78184509277344,280400
2024-05-22,144.27516616829382,145.01568300720135,143.69053743860678,144.97669982910156,283300
2024-05-23,144.85006990865986,145.1326311002017,143.77825531785473,143.9341583251953,171700
2024-05-24,144.6746820401184,145.01571802607805,143.58339067341524,144.294677734375,162300
2024-05-28,143.836724802742,143.9926278204598,142.08286789047202,142.95005798339844,318400
2024-05-29,141.91719871726886,142.94029173473893,140.80641583571733,141.12796020507812,229700
2024-05-30,141.410543437618,143.21312182875525,141.28387038236036,142.3946533203125,328100
2024-05-31,142.34592221115324,144.04133389426428,142.18028084802555,143.90492248535156,358900
2024-06-03,144.69415196830752,144.69415196830752,142.53104628481765,144.3628692626953,266200
2024-06-04,143.86592099935996,144.58696113630214,142.94027120894233,144.39208984375,287900
2024-06-05,143.93414175864157,144.4018358591035,143.31054466878322,144.12901306152344,229200
2024-06-06,144.2167184531987,144.2167184531987,141.67360827716013,142.21926879882812,197600
2024-06-07,142.0341108036029,142.57975636137067,141.72230484617774,141.8197479248047,179100
2024-06-10,141.11820201101247,142.0730817548525,140.2997336591496,141.8587188720703,125800
2024-06-11,141.19618149643244,142.0049116476871,140.65053582034008,141.77105712890625,147700
2024-06-12,142.49208619477034,142.56028446504888,140.37770193248102,142.09259033203125,221300
2024-06-13,142.1510502401924,142.77464737345872,141.3033518363989,142.09259033203125,232400
2024-06-14,141.37153537575932,141.6541113927317,139.99766820621562,141.04025268554688,141500
2024-06-17,141.15718412148226,142.92079402863507,140.86488458704773,142.57977294921875,303800
2024-06-18,142.72591745789433,143.9049133850115,142.71617909634801,142.9305419921875,219900
2024-06-20,142.9013265736243,143.74902501392364,141.93669344423844,142.07310485839844,199900
2024-06-21,142.13156155358197,143.3690174832924,141.5859159092863,143.08645629882812,444100
2024-06-24,143.44697885929565,144.43108875923312,142.91107154042683,142.9597930908203,182900
2024-06-25,143.02799086064448,143.0377440913265,140.79668659073084,141.1474609375,194500
2024-06-26,140.5530705033319,141.07922450275757,139.2961379744262,140.02691650390625,192400
2024-06-27,140.18283081054688,140.19258404144063,138.6238452437368,140.18283081054688,377300
2024-06-28,140.0951327056182,140.62130164013826,136.49969950140468,137.2012481689453,435100
2024-07-01,137.7566365411792,137.85406476284226,134.84326063403208,134.98941040039062,306400
2024-07-02,134.93096624606906,136.8992009132668,134.22941755019122,136.8017578125,259400
2024-07-03,137.26944057578334,137.77610297313112,136.9673878360534,137.60072326660156,143300
2024-07-05,137.37662989691958,137.81509405611425,136.14891240990124,137.28892517089844,207000
2024-07-08,138.01971219176104,138.8479338848322,137.87356241897373,137.88330078125,249300
2024-07-09,137.24996524910202,137.64946111828195,136.16841232749826,136.4509735107422,238400
2024-07-10,137.1427912342902,138.0002429282775,136.96741149746342,137.6689453125,142000
2024-07-11,137.58126568918084,139.62745197757425,137.14280144673384,138.44845581054688,244500
2024-07-12,139.73458741666883,141.76128144265283,139.73458741666883,140.88433837890625,263900
2024-07-15,141.0500051627038,141.95617833865197,139.471528177945,139.75408935546875,319900
2024-07-16,140.16332247598208,141.5761579380773,140.16332247598208,140.85511779785156,178800
2024-07-17,140.64078357711574,142.03414260124,140.64078357711574,141.1474609375,242300
2024-07-18,140.90385313125856,143.47619311255724,140.89411476933762,142.5310516357422,434200
2024-07-19,142.8331035452224,142.8331035452224,140.95257383249924,142.19976806640625,251200
2024-07-22,142.24849707102436,143.7782525564522,141.5274568267193,143.41773986816406,235700
2024-07-23,144.08029691478612,144.70389402799864,141.93668276735104,142.2971954345703,234500
2024-07-24,142.32643685826764,142.87208246083867,140.21203784671354,140.44589233398438,250600
2024-07-25,139.60532117118015,140.79777835848,138.03166963150022,138.2955780029297,558100
2024-07-26,139.89857456649796,147.87433581263446,139.13618573351647,143.348876953125,562800
2024-07-29,143.27066227743248,145.00070512899177,141.89249229543964,144.46311950683594,390900
2024-07-30,144.0526005590325,144.5608497597373,142.12707613546905,142.4593963623047,411000
2024-07-31,143.1924470445361,145.4893967000446,142.12705972104024,143.66160583496094,280600
2024-08-01,143.56388751848672,146.1638212279078,142.14661231103588,143.7104949951172,335300
2024-08-02,143.2706626945803,143.68117855788788,140.50455386188017,142.4007568359375,213500
2024-08-05,140.19177372348608,140.19177372348608,136.33095585655514,137.5038604736328,448500
2024-08-06,138.13918435319152,142.7917121263533,137.92415011565598,141.65789794921875,476000
2024-08-07,142.71351863316335,143.93529731272562,140.23087091858068,140.35794067382812,353600
2024-08-08,141.19851020506624,142.86012605228407,141.19851020506624,142.27366638183594,268600
2024-08-09,142.12707150261355,142.12707150261355,140.2308686365047,140.7000274658203,263200
2024-08-12,140.7196023508052,140.92485284608276,139.54669763491262,140.05494689941406,221100
2024-08-13,140.26993523709868,142.01953033347425,139.86920323944702,141.1105194091797,212000
2024-08-14,140.87595629330852,141.54059665428693,140.25040628297472,140.65113830566406,115700
2024-08-15,141.72633364426625,144.01349986295762,141.72633364426625,143.69094848632812,277500
2024-08-16,142.8112574093109,143.52477193479024,142.3225459699408,143.40748596191406,250600
2024-08-19,143.01655169361428,144.39470689643647,142.62557351448993,143.65187072753906,191200
2024-08-20,143.66163572090477,144.9616101671914,143.66163572090477,144.76612854003906,387200
2024-08-21,144.82477331506968,146.19317455052297,144.13081129301386,145.95858764648438,267300
2024-08-22,146.1931430052955,147.0043908471752,145.31345349068744,145.62623596191406,200400
2024-08-23,146.28112932183024,147.13148255671317,146.0660950693302,147.04351806640625,221400
2024-08-26,147.27808563075303,149.22316270583966,146.7502837904236,146.76983642578125,235500
2024-08-27,146.62319560495607,148.1186513646186,146.45703551102568,147.7863311767578,208300
2024-08-28,147.52243900517198,148.53896722738338,147.52243900517198,148.11866760253906,249000
2024-08-29,149.10590366425365,149.45777659281688,147.7961602301602,148.8419952392578,187100
2024-08-30,148.76377592556912,149.9757858009324,148.21642143807964,149.73143005371094,178500
2024-09-03,148.67579943804665,148.9397077997503,146.34952813965234,146.65252685546875,362400
2024-09-04,146.22248747836645,147.4931254531261,146.22248747836645,147.32696533203125,175800
2024-09-05,147.66905729781163,148.33369772794828,146.56456461999554,147.3171844482422,200600
2024-09-06,146.9848666423844,149.66299595561912,146.9848666423844,148.93971252441406,319100
2024-09-09,149.12543417994374,149.60436190451168,148.02094141802903,148.48033142089844,241500
2024-09-10,148.44121305528495,149.3404403457152,148.02092836146767,148.08934020996094,158100
2024-09-11,147.38560462789548,147.47358403097817,145.27438232544125,147.43447875976562,178000
2024-09-12,147.48335555565916,148.57806454072724,146.58412818731162,148.52920532226562,200400
2024-09-13,148.7540307356904,149.55550995868282,148.47056967180396,148.8419952392578,138600
2024-09-16,149.58480892545694,149.711878687663,148.63672233934471,149.53594970703125,182900
2024-09-17,150.52314424187358,152.05770553358903,148.44122844829255,149.57504272460938,259900
2024-09-18,150.28854503898594,151.97949745395337,149.26226288919727,149.6141357421875,214200
2024-09-19,151.5201058020689,155.2245321204598,151.5201058020689,153.35765075683594,412400
2024-09-20,152.78097785998767,152.78097785998767,150.9922920842791,152.3900146484375,663300
2024-09-23,152.64413901555898,153.36743736156149,151.24643136778755,152.4388885498047,315800
2024-09-24,152.6539129888592,153.53360261442796,152.5073055084099,153.09376525878906,246200
2024-09-25,153.74863062888252,154.30575394629471,152.35090807666947,153.5922393798828,284100
2024-09-26,154.3741917455601,155.46890073822925,154.13960485529182,154.80426025390625,371600
2024-09-27,155.0974630619756,157.9026770071578,154.6869472219151,156.2801513671875,354300
2024-09-30,155.6936899424124,156.79818261159085,155.34181709559473,156.57337951660156,289800
2024-10-01,156.91547599488553,156.91547599488553,155.45912532444558,156.3583526611328,192200
2024-10-02,156.25081826197203,156.49517397582386,154.39372080241395,155.16587829589844,186900
2024-10-03,154.42305944347365,156.83729535757135,153.10353247642593,155.3516082763672,367000
2024-10-04,156.32902451153032,157.82448038886116,155.73279593261282,156.95457458496094,350500
2024-10-07,155.79144712681207,156.03580287015131,154.4425986510062,155.1072540283203,223300
2024-10-08,154.7065131414347,155.4298115394373,153.5531611461703,155.08770751953125,205900
2024-10-09,154.77492465796232,156.4365406316993,154.5501066490753,156.0944366455078,152600
2024-10-10,154.4816916598629,155.78166590095645,154.4816916598629,155.62527465820312,168500
2024-10-11,157.3064660526596,158.26433645347558,156.7297900399239,157.90269470214844,194400
2024-10-14,161.26501674638376,163.9724675604005,159.76956083662878,163.41534423828125,469700
2024-10-15,163.54240800657777,165.82957403020615,162.73114520381247,164.87168884277344,397300
2024-10-16,164.89125425631357,165.37996574783452,162.1740195566003,162.2913055419922,330000
2024-10-17,163.2100898224655,164.51984798903112,162.76048359045095,164.09954833984375,238200
2024-10-18,165.28222016135715,165.28222016135715,163.99201476040307,164.8228302001953,171500
2024-10-21,164.66642176272074,164.68597439489406,162.54541605771234,162.57473754882812,217900
2024-10-22,161.97851806569597,162.61383696099375,161.0890596808476,162.0664825439453,228500
2024-10-23,162.7506980951874,164.18751109598531,162.40860899432064,163.86495971679688,318100
2024-10-24,164.96265033199813,164.97244548566184,162.83592058676018,163.2279510498047,547300
2024-10-25,165.5506581898616,166.4621158464969,161.32662941673635,165.54086303710938,518900
2024-10-28,166.51109693898178,167.9909874127624,165.39383645811452,165.72706604003906,350000
2024-10-29,165.6584719985112,166.1093032703483,164.29619798424773,165.33505249023438,338100
2024-10-30,164.99201804220056,166.80510810317358,164.76659496272163,165.658447265625,290300
2024-10-31,165.71726236332717,166.8835285592377,164.511800602721,164.56080627441406,329900
2024-11-01,164.7470008263351,167.57935486885265,164.27656437487803,166.03086853027344,316300
2024-11-04,166.24649215601715,167.16774490614142,164.82540251348084,164.90380859375,191800
2024-11-05,164.39420326637682,166.9619390225879,164.39420326637682,166.91293334960938,206200
2024-11-06,171.65639773514667,171.65639773514667,168.7064415133303,169.7061004638672,264100
2024-11-07,170.72533703485217,171.96021416270565,170.07849805877953,171.2251739501953,412300
2024-11-08,171.2153418594072,174.2927092224774,171.00953900081066,172.2541961669922,309200
2024-11-11,172.80305109831977,174.47893431358193,172.39141544269447,172.6364288330078,189100
2024-11-12,173.12646726649535,173.70471027192264,171.46037909110905,172.19541931152344,179800
2024-11-13,171.9993896484375,172.87163666728088,171.5583685633018,171.9993896484375,168400
2024-11-14,171.65636354138798,172.28359717955007,170.44110677931556,170.6273193359375,198200
2024-11-15,169.51987152643795,170.29410728655165,162.8555040894364,163.16912841796875,620500
2024-11-18,163.07110850953194,164.47259285308147,161.05220060257204,163.36512756347656,384400
2024-11-19,163.10050135971352,164.32556823234182,162.88488839377655,163.5709228515625,287600
2024-11-20,163.6689523651395,165.57025875538363,162.3458740139482,165.36444091796875,221800
2024-11-21,165.32524989622468,166.83452591248917,164.3942019349008,166.49151611328125,205100
2024-11-22,166.78548588113125,168.6378012238793,166.78548588113125,168.08895874023438,241600
2024-11-25,168.61822873869966,170.54893557134125,168.31441450843965,169.0592498779297,270100
2024-11-26,169.41208015284485,169.41208015284485,167.7459918835038,168.60842895507812,140300
2024-11-27,169.2258486988311,170.41172010241513,168.09879307136399,168.30459594726562,167200
2024-11-29,169.1474408135347,170.02949799270758,168.65741403213775,169.51007080078125,117300
2024-12-02,169.52966938718723,169.65708114199288,167.43235525852162,169.31405639648438,170900
2024-12-03,169.99030199549844,169.99030199549844,167.6773747915681,168.96124267578125,160100
2024-12-04,168.46144154971276,169.4414953175171,167.61859471122366,169.14747619628906,173400
2024-12-05,168.5790016500735,169.00043244262315,167.12852661860668,167.68716430664062,245000
2024-12-06,168.17719634246092,169.206240613641,167.44215617480054,167.7361602783203,209200
2024-12-09,168.13799201141873,170.00989796299024,166.8345189382819,167.3833465576172,301700
2024-12-10,167.314763972231,167.95179287684704,164.83522938002554,167.5009765625,287000
2024-12-11,168.45163097155876,170.62735133322187,168.3242192079917,168.873046875,418600
2024-12-12,168.24578529682086,169.1572428430024,167.37353826575998,168.2163848876953,178300
2024-12-13,167.50097468369896,167.58917592406897,166.43271978295425,166.8051300048828,153200
2024-12-16,166.74632140113093,167.52055717676743,164.24718169284583,164.28639221191406,236100
2024-12-17,163.57093094101776,163.5807410473189,159.59191593464618,159.83692932128906,511900
2024-12-18,160.42498045548814,161.14041541532916,154.7602716927562,155.05429077148438,468600
2024-12-19,155.34827572101605,158.3472520085594,155.07386193592262,155.7010955810547,404700
2024-12-20,155.55410914655246,156.59296357357135,154.32904214215637,155.02487182617188,730200
2024-12-23,154.03504524233003,155.73053403322555,153.82924233044926,155.35812377929688,194900
2024-12-24,155.61291680874774,156.2401505443862,154.77007007450553,156.1715545654297,100500
2024-12-26,155.26008773522096,156.44595915755792,155.26008773522096,155.6815185546875,164500
2024-12-27,154.6720636172203,156.39695253937097,154.46624578488056,154.99546813964844,145000
2024-12-30,153.86842421673967,154.34865589247661,151.90831690187673,153.6038055419922,221700
2024-12-31,154.14283313865855,155.09348635246576,153.06476816802203,153.9664306640625,317100
2025-01-02,154.50541406053284,154.9562452089523,150.38919273059594,151.0850372314453,239400
2025-01-03,150.967461006653,152.61395895139125,149.82080000531155,152.39834594726562,250700
2025-01-06,150.92824108328222,151.55547473376282,148.41930648135983,149.86978149414062,369000
2025-01-07,152.80993693958266,152.94714382872445,149.55616715946428,150.36959838867188,361200
2025-01-08,149.84039419615527,151.1830628417546,149.05634832584286,151.07525634765625,228600
2025-01-10,149.67378625415643,151.22227272909234,149.5365793490067,150.38922119140625,350800
2025-01-13,149.87959178115395,151.61429086251573,149.87959178115395,150.82044982910156,349300
2025-01-14,151.72208498613796,152.34931864881253,150.41861199327377,151.5260772705078,196900
2025-01-15,153.0059656935918,153.7900115770172,151.09486413391397,152.45713806152344,206100
2025-01-16,152.78054436817854,154.0350116916582,152.2121115255971,153.29017639160156,346300
2025-01-17,153.83901445152966,154.79946279018606,152.5747369358163,152.9765625,231900
2025-01-21,153.59400049694958,157.0633836408648,153.59400049694958,156.6419677734375,270900
2025-01-22,156.16174421991363,157.54362344855716,155.18169057482152,155.8971405029297,280000
2025-01-23,155.29930636956567,156.62236981086585,154.58385644519683,156.4361572265625,149800
2025-01-24,156.4655345596154,157.26918560397357,154.08401174390775,155.14247131347656,329600
2025-01-27,155.09348331003815,155.75011743220608,153.52539155704252,155.29930114746094,317000
2025-01-28,154.42706466770125,157.15161268643212,154.42706466770125,155.26010131835938,204300
2025-01-29,155.61289915746963,155.65210967336728,153.49597993190142,153.97621154785156,265800
2025-01-30,154.67206164041292,155.51489335460406,153.4567898296652,154.9758758544922,274200
2025-01-31,154.75046688049648,156.21075221700386,153.63320630664722,154.0154266357422,834100
2025-02-03,151.49669007178431,153.62340462840817,151.0654640871359,152.86875915527344,364600
2025-02-04,152.97657163323618,155.29930896783935,152.97657163323618,154.55445861816406,302400
2025-02-05,155.56680214959917,156.92315132969566,155.07537302605425,155.6061248779297,262600
2025-02-06,157.1000465610709,157.1000465610709,152.70666933390916,153.76815795898438,446600
2025-02-07,154.9181067066418,155.19330580645521,139.60517395113374,140.7256317138672,1221500
2025-02-10,141.7871257185982,142.1213089214259,138.4847213993473,140.8239288330078,621900
2025-02-11,139.83124474666104,140.61753433103604,137.8556901038002,139.85089111328125,377300
2025-02-12,138.55351384739762,141.03032057107268,137.53133297854282,139.27099609375,423500
2025-02-13,140.3030162479326,141.3153590533059,139.0351356946295,140.3226776123047,665900
2025-02-14,141.22689417596524,142.81911962723777,140.27352054231486,142.3080291748047,512800
2025-02-18,142.3080350119088,144.7651805608191,141.4332917963858,144.38186645507812,489600
2025-02-19,143.63488862497093,144.9617531188217,143.1139750082088,144.5194549560547,331000
2025-02-20,144.45067143286263,144.8929546251905,143.41866731928027,144.16563415527344,283100
2025-02-21,144.50964123842508,144.86347079347803,142.71100891667461,143.8314666748047,451900
2025-02-24,143.67418921142476,144.76516229739394,141.88539527604814,143.1139678955078,353300
2025-02-25,143.3793463686029,145.7873457467646,143.22208547113956,145.177978515625,336700
2025-02-26,144.13613543793164,146.6227652496447,144.10665089449034,144.12631225585938,735600
2025-02-27,143.7233423633532,144.65705460178307,142.86826057620084,143.13363647460938,262800
2025-02-28,143.6545685132905,144.43101994873356,142.1507965581812,144.2344512939453,348700
2025-03-03,144.45066986764067,146.2886098899811,143.19261258000728,144.07717895507812,394100
2025-03-04,143.04517170760187,145.413863500686,142.65203443781988,143.43832397460938,490100
2025-03-05,143.54644673744147,146.2984527664409,143.54644673744147,145.89547729492188,445100
2025-03-06,145.0305485219981,148.9030120941682,144.53911943917907,148.5590057373047,471700
2025-03-07,147.92997950600335,150.7311313223095,146.62277632487553,150.16107177734375,480200
2025-03-10,149.46325521067857,151.36016435752973,147.6646228865031,147.9889678955078,391100
2025-03-11,147.76290385774493,147.9791338698189,144.74553686653798,145.3549041748047,304000
2025-03-12,145.69890235666847,145.69890235666847,143.0648346293028,143.5267791748047,299700
2025-03-13,143.90028967318042,144.67674114419285,141.2957061369318,142.278564453125,238400
2025-03-14,142.74050098258454,144.37204929445636,142.06232638323863,144.14599609375,223600
2025-03-17,143.9985523832392,145.46301652973597,143.3597005392626,145.30575561523438,225200
2025-03-18,144.86348726301168,145.00108682799674,143.28108476706942,143.79217529296875,219900
2025-03-19,143.83145115048603,144.93226242362806,142.9763694002447,144.46047973632812,279600
2025-03-20,143.62506440139353,144.8929447997195,141.266195873561,142.71099853515625,332800
2025-03-21,141.53158870516717,142.96656835609656,139.91970176702517,142.33753967285156,601900
2025-03-24,143.25157833447938,145.6399164898611,142.42598107068508,145.45318603515625,463800
2025-03-25,145.94461117942933,146.67191660765496,143.4284817335018,144.68655395507812,325200
2025-03-26,144.5292868819481,146.1509967511721,143.79214330553276,146.01339721679688,630400
2025-03-27,145.7382209424352,147.3206233338603,144.50964812291966,146.78988647460938,312700
2025-03-28,146.73089236026235,147.42872827286658,143.2614041546856,144.41134643554688,239800
2025-03-31,144.06735434534886,146.5343229870739,143.59558661646503,145.8365020751953,372500
2025-04-01,146.3279441749535,147.4582251876305,144.85365676856068,146.54417419433594,240000
2025-04-02,145.46300090804647,148.5393516047407,145.46300090804647,147.9496307373047,247600
2025-04-03,144.24427337200635,147.4778854578111,143.9494278906975,146.1215362548828,352900
2025-04-04,142.73066750752537,145.42370434629547,137.63945428633932,137.7770538330078,531600
2025-04-07,134.00287530876898,139.6837941624517,128.60699371434606,132.3418426513672,629900
2025-04-08,135.025053604175,136.9219625810332,129.02961306087627,131.3688201904297,473800
2025-04-09,130.89705451371228,141.94438664080494,129.06895256636582,141.28587341308594,491800
2025-04-10,137.60014014324574,140.9123672890104,135.21180205228458,138.34710693359375,309000
2025-04-11,138.45522828256912,142.2294151261458,137.3446087271347,141.6396942138672,203000
2025-04-14,143.30071647529343,143.8904223472296,141.32516206166184,143.29087829589844,249300
2025-04-15,143.59558776645045,144.02803277300885,141.30552638075724,141.4726104736328,250700
2025-04-16,141.5905608939007,143.3204010585323,140.12611166033892,142.5144500732422,307700
2025-04-17,142.9075815858467,143.26141115086992,138.2979890544082,141.364501953125,390600
2025-04-21,140.84358440349993,141.58072806053443,138.6812993423107,140.13592529296875,291600
2025-04-22,142.02300391438817,144.30324204095515,141.12859939074895,143.51695251464844,217800
2025-04-23,145.3352237379666,146.76037999339664,144.69637196618555,145.51214599609375,537000
2025-04-24,145.39419037453416,149.3944300082923,142.96654468434576,148.8636932373047,424500
2025-04-25,148.26416156627027,150.3773006417577,145.04038795490476,146.5048370361328,220500
2025-04-28,147.23214190355793,148.44105313058392,145.73819343775142,147.13385009765625,235200
2025-04-29,147.1928200180196,149.37476614585432,146.45567646124366,147.72357177734375,359900
2025-04-30,146.51468782594912,147.41891562430362,144.68657086484222,147.3795928955078,556200
2025-05-01,146.34446689472773,148.3949671666266,144.87560983167245,146.1768798828125,445300
2025-05-02,150.8200800146687,150.82993276495682,145.69382189987473,149.8441162109375,431600
2025-05-05,149.28220335297306,151.04682352421423,148.74001624656938,149.3314971923828,267600
2025-05-06,148.11895410159835,149.88355931551433,147.30072446354023,148.77944946289062,312000
2025-05-07,149.725822860132,150.97779905174502,148.4836843764286,149.24276733398438,318400
2025-05-08,149.63710557992187,152.37768975892342,149.0949184458267,151.18484497070312,302500
2025-05-09,151.72702915659627,152.11149701025283,150.77078589758978,151.14540100097656,231600
2025-05-12,153.58036864826659,154.36902497347126,151.52001546847515,153.314208984375,352500
2025-05-13,154.09298971226121,154.09298971226121,151.02709949704072,151.4608612060547,339400
2025-05-14,151.4411368076829,151.4411368076829,148.82872891175197,150.3173065185547,350100
2025-05-15,150.18915951898913,153.2747551350197,150.18915951898913,152.7522735595703,278100
2025-05-16,152.9790195330319,154.9210795243073,152.3973913234781,154.78306579589844,278600
2025-05-19,154.14228486208216,156.09419752688567,154.09299102338977,155.837890625,185400
2025-05-20,157.98696796016725,157.98696796016725,155.6703079013984,156.28150939941406,388100
2025-05-21,154.635175921722,155.4139643336995,153.61978613582386,154.23098754882812,319800
2025-05-22,154.14229666137166,155.02952565627956,153.35364030902645,154.4281768798828,278900
2025-05-23,152.91987932375972,153.96484260280818,152.07207637318606,153.72825622558594,260500
2025-05-27,154.8027705397575,156.1927754755183,154.46759652531446,155.916748046875,352800
2025-05-28,155.91675648544185,156.58710455060864,155.02951252332593,155.1675262451172,364400
2025-05-29,155.59142705479934,156.4195093421778,154.59575775990618,156.08433532714844,232100
2025-05-30,155.9956163554189,156.52795067401013,154.31971618579314,156.15333557128906,335100
2025-06-02,155.30554827866962,156.813861590753,153.05788752213863,154.6844940185547,349600
2025-06-03,153.9648340363994,155.20697261718047,153.78739426335522,154.043701171875,397800
2025-06-04,154.27045472728327,154.30002802372996,148.15837939391508,148.2766876220703,831900
2025-06-05,149.43008223768163,151.1651140408049,146.9359674396561,150.32717895507812,482400
2025-06-06,152.1805223994589,152.28896284045817,150.05116971440813,151.13555908203125,264700
2025-06-09,150.544055582443,151.007375533086,149.21319719105352,149.44979858398438,388400
2025-06-10,150.00187555238352,150.82995798605992,148.72031080938757,150.3666229248047,323500
2025-06-11,150.82994254149838,151.4115707359019,149.4498052933599,149.7652587890625,380800
2025-06-12,149.26247896131767,152.42694148321849,149.26247896131767,152.16078186035156,337200
2025-06-13,150.829935873921,151.53972501083467,148.59212803830783,149.0160369873047,361200
2025-06-16,149.09491396311157,150.7313581523707,148.97660573756926,149.5385284423828,346200
2025-06-17,148.52313648415543,149.11461743433793,147.01483824975645,147.33029174804688,379700
2025-06-18,147.0049610386582,148.59212630654162,147.0049610386582,147.5767364501953,383200
2025-06-20,148.1583603569541,148.63156312403586,146.87681089594898,148.16822814941406,570500
2025-06-23,147.36973462159207,151.75661565197194,147.36973462159207,151.60873413085938,356500
2025-06-24,152.37767518899636,152.37767518899636,151.0073757093355,151.68759155273438,246600
2025-06-25,151.67773528253588,152.33823056724884,150.60319885109388,151.74673461914062,264700
2025-06-26,152.33824953068293,153.37336004754195,150.94824440925422,152.28895568847656,658200
2025-06-27,152.46640393058135,153.89583503865111,152.04249495674745,153.60995483398438,643100
2025-06-30,153.81695259670582,154.28028757107535,152.4170949235091,154.21127319335938,315500
2025-07-01,154.2112909513434,157.53350328229894,153.7479709659874,156.75469970703125,338300
2025-07-02,156.7645627082632,158.2531403852606,156.399800331021,158.04612731933594,293500
2025-07-03,158.3221432480809,159.07135840752164,157.55320754586447,158.75588989257812,235100
2025-07-07,158.66717993630388,160.0670377135844,158.27285931033134,158.6770477294922,313900
2025-07-08,158.61788810431491,160.2740678475626,157.58279268744894,157.7799530029297,342700
2025-07-09,157.66165312376677,157.74052026260657,155.8576218513925,157.46449279785156,252800
2025-07-10,156.93213815728353,158.08554170949643,156.08433532714844,156.08433532714844,361600
2025-07-11,156.31107345675375,156.31107345675375,154.40845469060778,155.66043090820312,292000
2025-07-14,154.91121519337966,156.6856880276844,154.46760074539523,155.32525634765625,276600
2025-07-15,155.50270521521296,155.7590120983507,151.8847603468732,151.97348022460938,254200
2025-07-16,151.73688195391455,153.40291433439845,151.37213464305125,152.78184509277344,261900
2025-07-17,152.5452588316346,154.1915706701163,152.31851019393284,153.81695556640625,397700
2025-07-18,154.62533756237983,154.98023213510643,152.72270372898328,154.16200256347656,243100
2025-07-21,154.20143682439874,154.44789098408017,153.03818041103906,153.2451934814453,205900
2025-07-22,153.8958333551263,157.09973737439896,153.0283099148117,156.9124298095703,449900
2025-07-23,157.7996815698846,159.55443403890214,156.88286424485372,159.36712646484375,450500
2025-07-24,159.11996916058192,162.4020082574344,157.96333091025235,159.9701385498047,431900
2025-07-25,160.19750774667867,161.22561221674488,158.94202169024894,159.14962768554688,296300
2025-07-28,159.35722424092228,160.12830639187274,156.35198291982778,156.88580322265625,308500
2025-07-29,157.23180681567746,157.7755224517839,155.4227248360997,157.0044403076172,388200
2025-07-30,156.98465159805863,157.11315522177728,153.14900170497543,154.99761962890625,580700
2025-07-31,153.99917438750097,155.55123391765005,153.4060273513415,155.3436279296875,679700
2025-08-01,155.17559628438335,156.31244400829624,139.47712391688526,139.73416137695312,1012300
2025-08-04,141.4838983520282,141.4838983520282,135.51295211602235,137.53952026367188,839000
2025-08-05,137.7471203907678,139.4573546226765,136.1159885271504,138.6170654296875,540800
2025-08-06,138.7060232610084,139.15087600319592,135.9775800358165,136.9562530517578,515300
2025-08-07,138.2018575966745,139.87254051260254,137.32203237332467,138.88397216796875,564000
2025-08-08,139.08169477744622,140.42614844511056,138.97295164681316,139.14100646972656,428700
2025-08-11,139.71437362843554,140.00105182700324,137.60871811175764,138.27105712890625,349500
2025-08-12,138.61705933663222,139.47710899953265,137.6383712108668,137.88551330566406,286100
2025-08-13,138.093132926373,139.82312776063122,137.6581603831194,139.813232421875,729900
2025-08-14,138.58740244327777,138.58740244327777,134.8802710493718,136.758544921875,875800
2025-08-15,136.7783310639517,137.36158282800585,136.2939270940797,137.13421630859375,770500
2025-08-18,137.30227391230105,137.97450831438334,135.77988510875218,136.31370544433594,529500
2025-08-19,136.68934510491053,138.91362381311117,136.68934510491053,137.99424743652344,333100
2025-08-20,138.3105996295714,139.6352775807112,137.6680211600025,139.56607055664062,519200
2025-08-21,139.02237682659523,140.27784781496257,138.6368357597722,139.03225708007812,270400
2025-08-22,139.6451775909557,141.69152157825582,139.57598564145147,139.813232421875,356500
2025-08-25,139.35848463440877,139.99116778923627,137.3714676366746,137.964599609375,245800
2025-08-26,137.4802014096915,138.5577372418402,136.43230633558758,138.11288452148438,442900
2025-08-27,137.49997281529963,138.96306488334525,137.44066112579765,137.84597778320312,729100
2025-08-28,138.56762766903606,138.56762766903606,135.8292890396428,137.30226135253906,320800
2025-08-29,137.57906986016718,138.27106476072905,136.76845157218256,137.6779327392578,370700
2025-09-02,135.84906508939116,136.94637659553402,134.6133546133004,134.85061645507812,310600
2025-09-03,134.5243943101381,134.62324210292473,132.9031426817368,133.67422485351562,382300
2025-09-04,134.79130216014153,136.8969425133348,133.49626493537275,136.87718200683594,401800
2025-09-05,137.43077574465525,139.21020178510477,136.0566663464884,137.03533935546875,440800
2025-09-08,137.00570288208334,138.39958806786993,136.10610193939624,136.71902465820312,616100
2025-09-09,136.67946624256135,137.88552093868483,133.55560145550504,135.48330688476562,637100
2025-09-10,134.57382046722492,135.88861824297987,133.30845412810189,134.69244384765625,685100
2025-09-11,135.18672513791338,136.6992335433112,134.31678014184178,135.53273010253906,477500
2025-09-12,135.05819131395336,135.48328351106477,133.674201778984,133.68408203125,261300
2025-09-15,134.41564821558472,134.6133588811563,133.09097016346266,133.30845642089844,298000
2025-09-16,133.2491099534109,133.871912788061,132.56701052064494,133.66432189941406,474800
2025-09-17,133.8719349467548,135.50308190645822,132.6560000017811,133.11073303222656,377400
2025-09-18,133.35786944137865,133.9608967611341,132.53737095397892,132.9624481201172,254800
2025-09-19,133.12062346030297,133.5555959668464,131.81570594067267,132.90313720703125,877200
2025-09-22,132.58677892796058,133.39741219498762,131.1533578735173,131.20278930664062,402100
2025-09-23,131.48947627590215,132.41873297707602,130.46137178622766,130.51080322265625,319700
2025-09-24,130.49103409799787,131.7860563410793,129.83857530726212,129.9967498779297,353300
2025-09-25,129.99674318999885,131.0050871706818,128.7808082948073,129.32452392578125,388700
2025-09-26,129.82869272268246,130.9161089366979,129.46292723339218,130.7777099609375,274400
2025-09-29,130.88645346701895,131.16325141933544,129.85834894189443,130.75794982910156,540600
2025-09-30,130.20434429084327,132.23089734514227,130.20434429084327,132.13204956054688,310400
2025-10-01,131.80581420869075,132.82403835835518,130.7974703117304,132.60655212402344,310100
2025-10-02,132.1320554290962,132.85370613455356,131.44006056877018,131.65753173828125,398500
2025-10-03,130.95565622479634,132.0529677443783,130.91610504183745,131.69708251953125,402000
2025-10-06,131.37085466398543,131.67730845586786,129.90777764901935,130.37240600585938,447100
2025-10-07,130.59976556964224,130.99518687665005,128.32605534345748,129.09713745117188,438800
2025-10-08,129.6803765561391,130.5008900185806,128.77089557092012,130.10546875,361300
2025-10-09,130.19444872342635,131.32141603944422,128.71159619791044,129.11691284179688,554200
2025-10-10,129.4431381350315,130.5008983927555,128.40513838295638,129.43324279785156,426000
2025-10-13,129.49258620457584,130.8370398948493,128.67207258406597,128.73138427734375,311400
2025-10-14,128.55343940983934,129.5617834901798,127.56487092285874,128.31619262695312,337400
2025-10-15,128.3161756767913,128.89942738681822,126.39835065189028,126.63561248779297,438300
2025-10-16,126.97171654630597,128.0195965446806,126.38845731965263,127.68348693847656,352700
2025-10-17,127.68349986264782,128.61275658450555,127.37704606806854,127.86143493652344,339700
2025-10-20,128.12834444492697,128.6028530293001,126.55652438869629,128.51388549804688,240500
2025-10-21,129.11692867987182,130.263671727181,127.64395622680965,129.077392578125,311600
2025-10-22,129.1564481138655,130.59976453326686,128.49410913348765,128.5731964111328,357500
2025-10-23,128.73197123448563,130.50805690169727,128.65259098954968,129.75396728515625,378600
2025-10-24,129.73411268037526,129.87302431778892,127.54127703952456,127.87864685058594,489300
2025-10-27,128.1366224648553,128.89071205489756,127.45198112404552,127.7794189453125,521700
2025-10-28,127.74964944095181,128.10685294985234,126.47959588491281,127.10470581054688,413500
2025-10-29,126.29107194406481,126.50936382227088,122.46106236313027,123.34414672851562,651100
2025-10-30,123.07624728804052,124.54474389238906,122.08401698830151,123.39376068115234,702600
2025-10-31,114.39423553008093,117.18240033192052,102.42794018569283,115.108642578125,2758200
2025-11-03,115.18801418737364,115.18801418737364,107.44862223530946,112.24109649658203,1661000
2025-11-04,113.47145606328911,115.0987131260131,111.65567282386979,113.29285430908203,1029100
2025-11-05,113.44168707726934,115.13839990799084,111.8938027289756,114.67205047607422,896900
2025-11-06,114.12632587945619,116.05125508565277,112.91581127124762,115.24755096435547,880300
2025-11-07,115.32692576494694,116.01155949259733,113.7988902652183,115.31700134277344,697200
2025-11-10,115.08879219606841,115.86273063108003,113.11425598749823,115.47576141357422,514000
2025-11-11,116.05125494853503,118.58144524090463,116.05125494853503,117.35107421875,484800
2025-11-12,117.42052991643766,118.74019803055835,116.99387815530137,117.24193572998047,547500
2025-11-13,117.3808436819808,120.93302228660532,117.3808436819808,119.26607513427734,679400
2025-11-14,118.8394216459119,119.75227929014665,117.47014653473461,117.68843841552734,521200
2025-11-17,117.56937122538191,118.56160156840677,116.65652112662708,118.41276550292969,820200
2025-11-18,118.73028226930452,119.1767828797841,117.14270772067383,118.38299560546875,817400
2025-11-19,118.5814455351289,118.5814455351289,116.79542796312874,117.08317565917969,598900
2025-11-20,117.08318073043249,118.68067219177061,116.45807833821543,117.65867614746094,507400
2025-11-21,117.21216086173891,121.29022793939164,117.21216086173891,120.57582092285156,509100
2025-11-24,119.91103668470342,121.44899676039621,119.50422617630296,120.5262222290039,740000
2025-11-25,121.45891525209124,123.11593804438662,121.45891525209124,122.48091125488281,543600
2025-11-26,122.06416725085363,123.55251268958358,122.06416725085363,122.84803009033203,538000
2025-11-28,122.66943052847252,125.10039933060551,122.66943052847252,123.78073120117188,315700
2025-12-01,123.90971816318398,123.9890984046682,122.07409360703122,122.32215118408203,536800
2025-12-02,122.80834273936739,122.8976474041654,119.86142506313116,120.65520477294922,325400
2025-12-03,120.50636459439258,123.29453683156571,120.46668204485655,121.11162567138672,543100
2025-12-04,121.25053931737644,123.11593712141129,120.9826404679227,121.07193756103516,708000
2025-12-05,121.0421717426921,122.55036603254122,119.6828210814482,120.96279907226562,537000
2025-12-08,119.98048683677486,121.15131890116776,118.37307858523162,119.13709259033203,496600
2025-12-09,118.67074319979267,118.91880077653559,114.46368881786525,114.82089233398438,640300
2025-12-10,115.2673979458709,116.88473826129054,114.23547747342825,116.25962829589844,734700
2025-12-11,117.04347933154511,117.74796190032998,116.24969967395411,117.09309387207031,389700
2025-12-12,117.5991381446397,120.69489957224027,116.73590258212603,120.5262222290039,656400
2025-12-15,120.53613763713133,121.508519071394,119.54390735802136,121.37953186035156,588600
2025-12-16,121.71688801826957,122.88772006482098,118.59136108661724,121.87564849853516,644800
2025-12-17,121.16124681536517,123.63189822994175,119.14702044648554,122.66943359375,567300
2025-12-18,122.70911937736454,123.15562755440962,121.08186229106413,121.66728210449219,457100
2025-12-19,122.38168448192317,123.36399795279324,120.31785116207733,120.44683837890625,1300400
2025-12-22,120.44683702770696,122.73888662712453,120.1293236305144,121.78634643554688,527800
2025-12-23,121.91534038479175,122.07409329724082,120.37738038293297,121.2406234741211,311700
2025-12-24,121.57798039532113,122.21300719710743,120.81396637664959,121.79627227783203,198000
2025-12-26,121.41922894554897,122.52060522415447,120.77427771310445,122.29238891601562,306000
2025-12-29,122.33208105068077,123.34415267923492,121.36961639767443,122.25270080566406,400200
2025-12-30,121.8458854019756,123.3342308707125,121.46883303835433,121.78634643554688,289800
2025-12-31,120.57582164498164,122.37176361957204,120.40714431232067,121.01240539550781,314300
2026-01-02,120.79411858954116,122.04433092844077,119.84157837851366,121.58790588378906,295100
2026-01-05,120.81396333104647,123.61205247154165,120.81396333104647,122.04432678222656,435700
2026-01-06,121.2703893294616,121.89549169761267,119.17678277613919,119.62328338623047,777200
2026-01-07,119.73243542753909,121.00248907397176,116.6962129559037,119.50422668457031,478500
2026-01-08,118.98826090452039,122.41146012961788,118.59136725333443,121.48868560791016,330000
2026-01-09,121.13148146291526,123.9990265337246,120.51629592819934,122.88772583007812,429100
2026-01-12,123.0365583546262,124.32646078477775,122.02448676997972,124.15777587890625,477300
2026-01-13,124.07840343065625,124.46537264637453,121.58790323017156,122.54044342041016,351900
2026-01-14,123.14570153346037,126.1720069370604,123.14570153346037,125.86441040039062,611700
2026-01-15,126.15215809530929,126.23153833510459,123.5525120178855,124.13793182373047,381000
2026-01-16,123.03655288156622,124.22722617172847,122.28245576040153,123.74103546142578,363400
2026-01-20,123.92956647771405,124.55466884396232,122.4809111423571,122.85795593261719,275100
2026-01-21,123.34415338455338,124.64398030125511,122.93734287422093,124.0387191772461,421000
2026-01-22,124.07840219082979,125.42783600604635,123.09608874217598,123.5029067993164,369700
2026-01-23,123.37391303470616,125.29884225734148,122.90757114819523,125.0210189819336,429500
2026-01-26,125.43775721229031,126.00332820078921,124.12801347207618,125.36830139160156,315400
2026-01-27,123.9791728132312,125.3186897727715,123.205234391347,123.77080535888672,303100
2026-01-28,123.23499911768216,124.09824219611878,122.29238336925172,122.73888397216797,347800
2026-01-29,123.32430960117436,124.30661551602421,121.63751348474041,122.88772583007812,386000
2026-01-30,121.9550286222896,124.03871071803064,121.70697104969861,123.97917175292969,512700
2026-02-02,123.23499750184895,124.93171793896286,123.23499750184895,123.860107421875,489100
2026-02-03,122.94725978548665,126.93602225021577,122.72896790883826,123.66165924072266,658700
2026-02-04,125.21552867481128,129.90700134775133,124.20949930267037,128.7216796875,589400
2026-02-05,127.16782066467043,128.5722782146923,121.48028130551128,123.49234008789062,2144200
2026-02-06,127.02836268310486,135.45509216979158,127.02836268310486,133.7816925048828,1045700
2026-02-09,133.05457384055362,139.02101804829903,132.72587004959905,137.9253387451172,1043400
2026-02-10,137.26793457923543,140.37565748193367,137.26793457923543,139.61865234375,622100
2026-02-11,138.48313331396238,139.99715874839507,138.05483198642824,139.4592742919922,584300
2026-02-12,139.60869173387061,141.44145054391814,138.84171623230802,139.95730590820312,572700
2026-02-13,139.9573151020267,142.3677944950846,139.85771755943315,142.01918029785156,471900
2026-02-17,138.71222079286514,143.055071512211,138.71222079286514,141.0928192138672,614700
2026-02-18,140.9135352437976,142.54708376856578,140.2860084572567,141.1625518798828,582000
2026-02-19,141.0928230678908,142.7562676088946,140.4752666602554,142.59689331054688,525500
2026-02-20,142.55704525117903,144.56910401516237,141.44145553591065,144.47946166992188,664500
2026-02-23,142.9255958993581,145.6647789342487,142.5670113304762,145.14682006835938,513500
2026-02-24,145.49544486452967,146.33213709933392,143.28417595914058,143.57302856445312,429800
2026-02-25,141.8498473766502,143.0949306198296,139.87762457633954,142.1187744140625,348900
2026-02-26,142.95547535989397,143.35389589996325,140.44538340090327,141.23226928710938,331300
2026-02-27,140.97329664666827,143.44353741820976,140.44538259466083,143.1447296142578,344600
2026-03-02,142.43751420451355,142.78614357053576,141.06293752550724,142.1088104248047,335000
2026-03-03,140.08679425249235,140.76412738697488,136.38142559574294,139.2102508544922,347300
2026-03-04,138.79191754238275,138.9612470419286,135.47501391314069,136.50096130371094,389000
2026-03-05,135.46505150535157,135.80371048641027,133.88130933030985,134.20004272460938,452300
2026-03-06,133.47291651624107,133.47291651624107,130.48471689274314,131.5604705810547,398500
2026-03-09,130.45484354440993,133.45299853256722,127.02837201579013,133.22390747070312,545700
2026-03-10,132.82547764917305,133.60240832546756,130.88313575966777,131.6102752685547,503100
2026-03-11,131.2815812945587,132.75575561111177,129.5284943463408,131.50071716308594,563800
2026-03-12,130.7536581494707,132.26766833775483,128.13399830193273,128.35313415527344,620600
2026-03-13,129.6380511924889,129.6380511924889,126.55025410703881,128.14395141601562,660600
2026-03-16,128.97069022910543,130.8931065380538,125.50438295551326,128.54238891601562,370700
2026-03-17,129.45876833048925,130.50464122844355,127.73557748644285,128.99061584472656,276700
2026-03-18,123.89075860801685,126.08210964583039,120.94240244020646,123.73139190673828,910500
2026-03-19,122.52615308632394,124.32903117833895,120.97228404186016,123.48237609863281,518500
2026-03-20,123.77123411184346,123.77123411184346,119.83676660084556,120.58381652832031,1481500
2026-03-23,123.02418368013113,125.84304628604973,122.50622481021608,123.65170288085938,455200
2026-03-24,122.67556308818467,124.72745780194329,122.38670286935901,123.66166687011719,405000
2026-03-25,124.94659356774676,126.07214606142944,123.22339504970952,125.3250961303711,337200
2026-03-26,124.72746089618293,126.83911722505529,123.6317891558115,124.19954681396484,442100
2026-03-27,123.45249678230496,123.72143142045898,121.28107129127055,121.51016235351562,381400
2026-03-30,122.07791483255923,123.45249154525831,120.62365857080745,122.87477111816406,562000
2026-03-31,123.90072145898677,126.46061226934556,123.1038651540704,125.52430725097656,557800
2026-04-01,126.83910993884153,128.13399948450484,125.83308820196113,126.25143432617188,380200
2026-04-02,124.64777023751822,126.5900970135599,123.76127159620845,125.51435089111328,297500
2026-04-06,124.0999305830527,125.6936431780852,124.0999305830527,125.51435089111328,461100
2026-04-07,124.82706080661809,126.6697824199569,124.30910953992999,125.11592102050781,376900
2026-04-08,130.86323514521675,132.1481543754263,127.64592907491694,131.50071716308594,645200
2026-04-09,130.70386349661462,131.91906599267529,126.83912013545304,130.88314819335938,424100
2026-04-10,131.7298075164679,132.178034445579,130.3353203595067,130.98275756835938,407400
2026-04-13,130.28551770076956,131.89914077103793,127.07818194963497,131.59036254882812,396300
2026-04-14,130.71381054193466,132.197955189354,130.45483870763653,130.4946746826172,315500
2026-04-15,130.29547082253353,130.51460669263554,128.0941721257409,129.14002990722656,407100
2026-04-16,126.40084558822308,129.81735412824597,126.40084558822308,127.78536987304688,393800
2026-04-17,129.14002424182965,131.7796097617975,129.14002424182965,130.11618041992188,401100
2026-04-20,130.05641512792803,131.47082778766443,129.1499909308814,130.405029296875,403600
2026-04-21,130.18589466096142,131.72980084865796,126.1916732788086,126.1916732788086,310200
2026-04-22,126.77935427393615,126.77935427393615,122.47634691200882,124.06009674072266,458900
2026-04-23,124.88682675562279,126.93872910578784,123.95052932532681,124.44856262207031,440800
2026-04-24,123.9206456254592,123.9206456254592,122.08787918491913,123.5919418334961,440900
2026-04-27,123.55209914216728,125.73348737793874,123.05406585359005,124.23938751220703,359700
2026-04-28,125.62392082821759,126.15183490401432,123.23335949687649,125.2752914428711,354300
2026-04-29,124.64776713863216,125.4047798425139,122.30701227202618,122.41658020019531,448400
2026-04-30,122.94449532386469,125.58407321741664,121.40058912214994,123.19351196289062,764800
2026-05-01,126.70962950793603,127.97463072857443,117.4362520229959,118.55184173583984,989400
2026-05-04,118.21317963909578,121.27110367417347,116.9979772200526,120.12562561035156,739600
2026-05-05,120.42445055667139,123.22339520339091,120.34476340674007,121.55000305175781,628600
2026-05-06,123.18000030517578,126.38999938964844,121.66999816894531,122.62999725341797,917000
2026-05-07,122.94000244140625,126.47000122070312,122.56999969482422,125.11000061035156,749700
2026-05-08,125.2300033569336,125.86000061035156,120.38999938964844,120.98999786376953,794900
2026-05-11,121.22000122070312,121.22000122070312,119.44000244140625,119.95999908447266,706100
2026-05-12,120.44999694824219,120.86000061035156,117.13999938964844,118.05000305175781,696600
2026-05-13,118.0,118.75,116.43000030517578,117.87999725341797,679500
2026-05-14,118.7300033569336,120.16000366210938,117.04000091552734,117.98999786376953,531000
2026-05-15,117.91000366210938,117.91999816894531,114.47000122070312,114.66999816894531,447000
2026-05-18,115.5999984741211,117.31999969482422,115.16999816894531,115.80999755859375,433100
2026-05-19,115.88999938964844,116.04000091552734,112.44999694824219,113.61000061035156,575800
2026-05-20,114.06999969482422,115.44999694824219,111.55000305175781,115.26000213623047,562600
2026-05-21,116.5,116.5,112.7699966430664,115.51000213623047,345600
2026-05-22,115.80000305175781,116.80000305175781,114.70999908447266,116.2300033569336,405800
2026-05-26,116.19999694824219,116.97000122070312,115.37000274658203,116.37999725341797,344500
2026-05-27,116.94000244140625,118.11000061035156,114.7300033569336,115.30000305175781,464000
2026-05-28,114.80999755859375,116.33999633789062,113.3499984741211,115.98999786376953,510100
2026-05-29,115.05999755859375,117.26000213623047,113.75,115.8499984741211,559600
2026-06-01,114.69000244140625,115.12999725341797,112.02999877929688,112.37999725341797,706800
2026-06-02,111.94999694824219,113.05000305175781,111.23999786376953,112.18000030517578,452400
2026-06-03,111.69000244140625,114.0199966430664,111.69000244140625,112.52999877929688,372600
2026-06-04,114.94999694824219,115.76000213623047,111.54000091552734,112.55000305175781,337600
2026-06-05,113.08999633789062,114.58999633789062,111.9800033569336,113.36000061035156,466300
2026-06-08,112.26000213623047,112.63999938964844,110.94999694824219,111.94000244140625,422200
2026-06-09,113.27999877929688,116.1500015258789,112.66999816894531,115.9000015258789,444400
2026-06-10,116.1500015258789,116.55000305175781,113.37000274658203,114.66999816894531,496800
2026-06-11,115.11000061035156,117.01000213623047,114.26000213623047,116.58000183105469,395200
2026-06-12,117.9000015258789,118.47000122070312,116.37999725341797,117.72000122070312,342600
2026-06-15,118.69999694824219,120.73600006103516,117.55999755859375,118.08000183105469,387097
