Date,Open,High,Low,Close,Volume
2023-07-10,109.00500198025017,110.91940103944074,108.71640430737611,110.12093353271484,248000
2023-07-11,109.96700155164797,111.1695101237359,109.06272009631815,111.12141418457031,226700
2023-07-12,112.15075043375238,113.08389817019831,111.37151996316304,112.42973327636719,199400
2023-07-13,112.41050560873053,112.91075331047938,112.13152272497258,112.5644302368164,190200
2023-07-14,113.21857971119438,114.32488163094602,112.26618771937571,113.85350036621094,271600
2023-07-17,113.901608790538,114.99829597658342,112.70872239053817,114.72893524169922,234200
2023-07-18,114.48843069197581,115.79676051992628,114.19020359473971,114.55577087402344,189100
2023-07-19,114.23830222496996,114.87323020662586,113.81501690386602,114.58462524414062,247200
2023-07-20,115.22916474035685,115.65245004945407,114.34412031181617,114.7962646484375,175800
2023-07-21,115.10412706121498,115.4889312891488,114.35376285348565,115.28690338134766,184300
2023-07-24,115.46005920763793,115.91220360263762,114.19983257951267,115.18108367919922,163400
2023-07-25,115.13298219212088,116.518274429924,114.76742222471391,115.97954559326172,250700
2023-07-26,115.98920870280928,116.22087615837353,114.69571673304294,115.78649139404297,306900
2023-07-27,115.89267286358223,116.58768258896228,114.61849082191067,115.00460815429688,407800
2023-07-28,118.23831895027517,122.58212207343301,117.64949171552556,119.4835433959961,513000
2023-07-31,119.23256614634282,119.62833841068284,116.63594217392378,117.24407196044922,746500
2023-08-01,117.03171906797638,118.24798613025452,116.5587291855366,118.19007110595703,365300
2023-08-02,117.22477436702148,118.08388154374163,115.81545239886735,117.99700164794922,329200
2023-08-03,117.30198526491023,118.46999212502719,116.52975802792562,116.61663055419922,195900
2023-08-04,116.43323498490459,117.89081698819571,116.29809502916336,116.4525375366211,116500
2023-08-07,116.53941911210748,117.43713875366868,116.32705421728596,117.0799789428711,140300
2023-08-08,115.91197623422308,117.18615820393119,115.55481643313685,116.91587829589844,270100
2023-08-09,116.91587969970159,119.10708386434126,116.33670004459134,117.60123443603516,287500
2023-08-10,117.5722832458952,119.28084269949765,117.5722832458952,117.98735809326172,216000
2023-08-11,117.29233942455933,118.94298372960004,117.29233942455933,118.35415649414062,226500
2023-08-14,117.79428541805788,118.72096252441406,117.35990805602609,118.72096252441406,145700
2023-08-15,118.37347596157628,118.66306582401643,117.74604353391618,117.85221862792969,249000
2023-08-16,117.5047117104786,118.8850761972262,117.27303689321533,117.32130432128906,291100
2023-08-17,117.72671616217751,118.40242328617137,117.39852124033838,117.4178237915039,186600
2023-08-18,117.16684484694098,119.13603644494522,117.16684484694098,119.01055145263672,443100
2023-08-21,118.87541361000102,120.13994060696739,118.78853371795883,119.4835433959961,358800
2023-08-22,119.5704144772244,121.3465436439304,118.49894252996661,118.68234252929688,429600
2023-08-23,118.78854644703752,119.27119129021848,118.06457918226604,119.10709381103516,305000
2023-08-24,119.20360046165038,121.10522198957945,118.33483842292966,120.76737213134766,278400
2023-08-25,121.21141540913233,123.24817706491329,120.64189807716028,123.113037109375,493000
2023-08-28,123.19990731647617,125.08222642954905,123.19990731647617,124.91812896728516,331900
2023-08-29,125.29459480392038,127.37962390450569,124.90847012095054,127.2444839477539,472400
2023-08-30,127.77537379799342,128.63448091355718,127.1286315630544,128.27732849121094,298900
2023-08-31,128.65381870809708,129.0881961565409,127.64992383326793,127.95880889892578,305800
2023-09-01,128.48006235551034,129.1460998625125,127.92019257336877,127.94915008544922,252000
2023-09-05,127.10933191058002,127.39892174655428,122.93928835166383,123.14199829101562,325300
2023-09-06,123.3543672903448,123.56672483060133,121.81955289196907,122.02227020263672,291100
2023-09-07,121.90642476392419,122.7558769627409,120.79634024831218,121.00870513916016,328600
2023-09-08,121.15348865161297,122.27322065538502,120.77702633129032,120.9604263305664,238800
2023-09-11,122.58211525615182,123.48948977030165,122.02225292626916,122.60142517089844,333500
2023-09-12,121.73266457200782,122.87170652466514,121.06661243223265,122.1380844116211,258000
2023-09-13,121.41411356393762,122.19599571149733,120.76737135880614,121.01834869384766,279300
2023-09-14,121.63615541603849,122.88137999494357,121.63615541603849,122.36012268066406,217900
2023-09-15,122.09947397972398,122.78482868131519,120.8252920593083,121.55891418457031,589200
2023-09-18,121.97399375623068,121.97399375623068,120.58397438341775,121.27898406982422,175100
2023-09-19,121.32724105826763,121.32724105826763,119.75381444117978,120.9604263305664,218600
2023-09-20,121.47203081864482,121.72300815831589,120.2364613996098,120.30403137207031,206200
2023-09-21,120.01446098001375,120.03376353212249,117.94874176933433,117.97769927978516,335700
2023-09-22,118.08388775742861,118.63410257781541,117.87152285051164,118.42173767089844,341200
2023-09-25,117.7556733807471,119.82139248538923,117.25372604135627,119.7345199584961,258800
2023-09-26,119.24221396331276,119.90826609288796,118.95263152427002,119.30978393554688,547000
2023-09-27,119.7345215441092,120.130286446155,118.60513449209238,119.2325668334961,362400
2023-09-28,119.56076662731212,121.2789808821135,118.98159435872148,121.11488342285156,219300
2023-09-29,122.09946539715449,122.42766765298138,120.45847621174302,120.69979858398438,330900
2023-10-02,120.20751032066919,121.1245398411893,119.68625306327961,120.70946502685547,244100
2023-10-03,119.71521017927378,120.96043461818644,118.23831830380705,118.60513305664062,236300
2023-10-04,119.26154096613664,120.33301308264014,118.08388639739762,119.91793823242188,208200
2023-10-05,119.65729977912974,120.59363188391382,118.53756765542609,119.45458984375,466700
2023-10-06,119.31945619225938,122.29255013075931,119.10709128742714,122.02227020263672,491700
2023-10-09,121.45272473108072,122.80413150550514,121.32723974718735,122.53385162353516,275700
2023-10-10,122.82345065071607,124.14590009712616,122.11879334387909,122.14775085449219,322000
2023-10-11,123.1033706665039,123.26746811655187,122.25391854457223,123.1033706665039,212900
2023-10-12,122.8041363601095,122.9778887717552,120.71910742036091,121.06661224365234,189300
2023-10-13,121.62648405864162,122.2732262936777,121.047311797944,121.59752655029297,324900
2023-10-16,122.93926824556056,123.00683821429375,121.79057141252187,122.31182861328125,275200
2023-10-17,121.63615301588416,123.88527234319643,121.63615301588416,123.05513000488281,314400
2023-10-18,122.4663049500312,123.23853227905134,121.8967802064746,122.37942504882812,287300
2023-10-19,121.70371751008852,123.0454694977166,121.03766531314531,121.3658676147461,443900
2023-10-20,121.55892290885227,122.08983514903522,117.69776440446827,117.97769927978516,446500
2023-10-23,117.49506449916711,118.88508403609764,117.00276468574154,117.28269958496094,379000
2023-10-24,117.89082303186629,119.47389747848429,117.4950581024996,119.05882263183594,312100
2023-10-25,118.57455715007785,119.88204282207963,118.0515614034497,118.51644897460938,431300
2023-10-26,117.44141263972791,121.44135246402949,117.44141263972791,119.54307556152344,576000
2023-10-27,119.58180642535675,119.94015002335149,116.56974286908424,117.35423278808594,364000
2023-10-30,118.08063424721645,118.46803938652907,117.04432974830978,118.32276153564453,283100
2023-10-31,118.65203365004758,119.02006439131993,117.99344726783497,118.41958618164062,422900
2023-11-01,118.26465305275431,119.54308483686565,117.78039847711914,119.05883026123047,360500
2023-11-02,119.82394517295023,120.37599505580931,119.10725051904181,119.6883544921875,384300
2023-11-03,120.51158420536397,122.003089063941,120.51158420536397,121.4026107788086,278000
2023-11-06,121.32513288888951,121.7706535816755,120.82151140319914,121.2476577758789,173500
2023-11-07,120.69560295651807,121.05394658334917,120.25976944156056,120.6278076171875,205000
2023-11-08,120.94741546858789,121.53820661912391,120.49222239198797,121.17986297607422,175800
2023-11-09,121.73191177707123,121.73191177707123,120.16292436681583,120.47284698486328,118600
2023-11-10,120.32755166268454,121.82874351309181,119.98857500298719,121.76094818115234,195600
2023-11-13,121.44136268053566,121.5285323470718,120.45348659100293,120.60844421386719,183100
2023-11-14,121.98371434677951,123.83357021629412,121.36386913343608,123.82388305664062,267400
2023-11-15,123.79482241076971,124.74396449982626,123.33962198995368,123.68828582763672,388600
2023-11-16,123.63018225230408,124.56962982804686,122.84568489375135,123.53333282470703,217000
2023-11-17,124.5115175822605,125.01514641193484,123.59143696643567,123.90135955810547,162700
2023-11-20,123.43647327736079,123.63017951740747,122.44859731510405,123.3105697631836,213900
2023-11-21,123.44615504617012,124.25970644056609,123.19434063967408,123.88198852539062,160600
2023-11-22,124.40498620938287,125.13136800676534,123.34931487730645,124.5212173461914,174800
2023-11-24,124.90862165558492,124.90862165558492,124.06602345517848,124.48247528076172,65900
2023-11-27,123.79484097578235,124.25972862545618,122.85538590498,123.00066375732422,367500
2023-11-28,123.00064589587653,123.01033305506304,121.53819520248676,121.6544189453125,218000
2023-11-29,121.68347600284008,122.41954494708847,120.98614830714556,121.42198181152344,331800
2023-11-30,121.4994637924141,123.1265593780295,120.87961855876425,122.89411926269531,301000
2023-12-01,122.43890670746781,124.492141070173,122.43890670746781,124.06600952148438,218300
2023-12-04,123.43646825089567,124.8214437961348,122.89410557912561,124.37592315673828,192000
2023-12-05,124.21129359931997,124.63743997307381,121.91592434406154,122.0224609375,178000
2023-12-06,122.40985460010225,123.29120135619293,121.91591293032465,122.39048767089844,179500
2023-12-07,122.2645865924303,123.10719216867501,122.02245931767312,122.5067138671875,254000
2023-12-08,122.38080197837209,123.48490168465685,121.66410736304317,123.3105697631836,265800
2023-12-11,123.25246079430477,123.65923281208454,122.36142687408662,123.55269622802734,338000
2023-12-12,123.63019043101764,124.06602396774328,122.69073540398784,123.46554565429688,210300
2023-12-13,123.1749792246949,124.92798560063507,123.1749792246949,124.54057312011719,425000
2023-12-14,125.01514938630581,125.91585570519116,122.88442505238625,123.38805389404297,412900
2023-12-15,123.15560486363452,124.5308858353653,122.00307681833802,122.01276397705078,713000
2023-12-18,122.7197829699494,123.20403750335895,121.91591867109649,123.04907989501953,240500
2023-12-19,123.68828729734022,124.09506670556218,122.06119183186492,122.25489807128906,659100
2023-12-20,122.05150298155804,122.94253689228862,121.50914029696,121.61567687988281,346400
2023-12-21,122.26459447296418,122.26459447296418,120.91836732967452,121.94499206542969,421900
2023-12-22,122.41954341082864,123.03938860163689,122.14836206349223,122.29363250732422,312200
2023-12-26,122.16773575790391,122.8747506432993,121.63505280389793,121.86750030517578,274700
2023-12-27,122.14835976545038,122.48733644324355,121.09268109559463,121.33480834960938,283100
2023-12-28,121.0442736769447,121.8384508637691,120.48253661112938,121.25733947753906,343600
2023-12-29,121.24766326207607,121.41230804473831,119.66898861320153,119.72710418701172,313500
2024-01-02,118.74890465167896,120.19198118193904,118.4389820266069,119.0103988647461,313100
2024-01-03,121.20890647105196,123.25246111360688,119.27188841283024,121.41229248046875,531700
2024-01-04,121.23796483552567,121.95465947338585,120.22102736343857,120.30819702148438,353300
2024-01-05,119.88204634088143,120.45347050993072,119.11692332182685,120.288818359375,423000
2024-01-08,120.16291594190298,121.21859463473278,118.51645353442673,120.43409729003906,352400
2024-01-09,119.81424996434863,120.71496364841524,119.0975553585858,120.70527648925781,250300
2024-01-10,120.54064287476366,121.4704107331338,120.31788991750878,121.2476577758789,279600
2024-01-11,121.43165795791798,122.97159113814334,121.00551901481788,122.8456802368164,323100
2024-01-12,123.86262311015058,123.94010560835483,121.9546590794131,122.44860076904297,231700
2024-01-16,121.91592138408514,122.82632229167827,121.55757775043605,122.81663513183594,257500
2024-01-17,121.97403476171849,123.26214621035574,121.92560635251516,122.7004165649414,336900
2024-01-18,123.31057128043204,125.91585558616275,122.33237507628849,125.07325744628906,444200
2024-01-19,125.62530563186141,127.32019633787085,124.49213712639097,126.68097686767578,418000
2024-01-22,126.77784750777892,127.65919442058058,126.44855792880165,127.05872344970703,266200
2024-01-23,127.64949663077542,127.69792503926627,126.2257871351414,127.67855072021484,217800
2024-01-24,127.95941205571333,128.12405682223405,126.42916597018038,126.66161346435547,294400
2024-01-25,127.87226489091026,128.21124901267035,126.27423066724624,127.11682891845703,332300
2024-01-26,127.53327613099292,128.4146229928944,127.2620947547581,127.55265045166016,219900
2024-01-29,126.92311919612955,128.41461669224083,126.3807564702709,128.0853271484375,187800
2024-01-30,127.87225396638219,128.89887123722548,127.48485624170483,128.0853271484375,228400
2024-01-31,128.60019904589583,128.98881624681667,125.48162568874483,126.18112182617188,537500
2024-02-01,126.74465397798895,127.37613678695742,125.91885508235073,126.78350830078125,298800
2024-02-02,126.2588927249426,126.98753357329369,125.02505673761532,126.39490509033203,344800
2024-02-05,125.45252075117756,127.7064419292571,124.4032762146761,126.9292221069336,319500
2024-02-06,126.7640332690289,127.65783065034668,125.61764580958807,127.3955307006836,369700
2024-02-07,127.66757043860348,128.64880125247385,125.6856594170207,128.0464630126953,393000
2024-02-08,127.89101966708147,130.99988380062553,127.79386164056334,128.3573455810547,620700
2024-02-09,128.34765326293345,135.24545901063345,127.76473467256268,135.00257873535156,650900
2024-02-12,135.19687008272106,136.4695602600504,133.5938514887977,133.69100952148438,491300
2024-02-13,132.79720331284167,133.41897613857319,131.13589593708764,132.058837890625,275900
2024-02-14,132.37944687307478,133.5452839390653,131.32049253489302,133.26353454589844,335000
2024-02-15,133.26351222976635,133.88528497619748,130.73756693299123,131.1941680908203,471400
2024-02-16,131.51480751987208,134.06991277521306,131.19420377563176,133.5841522216797,453900
2024-02-20,133.23441009161263,136.1489735454098,133.04981870099434,135.7117919921875,373000
2024-02-21,135.1191419156268,136.11980735566468,135.03170858379454,136.012939453125,276300
2024-02-22,136.46956475351203,138.36402785940447,136.08096225843894,137.4410858154297,295700
2024-02-23,137.92684167751443,138.00456513874505,136.59586261149656,137.33421325683594,190300
2024-02-26,137.47021310589366,138.01426246079586,136.79015141226589,137.8782501220703,199200
2024-02-27,137.87823606201974,138.13082614411428,135.81861662156606,136.3140869140625,244600
2024-02-28,135.67288950179886,137.21761901910057,135.36201051839788,136.4112548828125,189600
2024-02-29,136.6249803721688,137.59650121145214,135.84776073589583,136.45982360839844,250600
2024-03-01,135.89636538153738,136.78043824566248,135.5854715386809,136.294677734375,151400
2024-03-04,136.68327855712852,138.0725463362649,136.55697609566792,137.9171142578125,260300
2024-03-05,138.21830138260887,139.13153352462706,137.7033964215534,138.461181640625,190200
2024-03-06,138.85948674736358,139.54927316677816,138.4223052706071,138.99551391601562,184000
2024-03-07,140.38479534655966,141.00656824163036,139.74358787920184,140.530517578125,250100
2024-03-08,140.5887816147806,140.93852969605862,138.89833008456506,139.01490783691406,185200
2024-03-11,138.72346042502105,139.29666901267245,137.9365308813045,138.67489624023438,226700
2024-03-12,138.73318637825068,138.78176538770967,137.45077168484818,138.3542938232422,242200
2024-03-13,138.92750291804336,138.92750291804336,136.9164473335974,137.13990783691406,336800
2024-03-14,137.33421990117986,137.5868100442241,136.36269882514554,136.9164581298828,235200
2024-03-15,136.051814987164,138.35433018745536,135.76037050227316,136.98448181152344,599500
2024-03-18,136.91644460546308,137.27591744856747,134.9734026453255,135.29400634765625,299700
2024-03-19,134.9248171938589,136.32380955657803,134.9248171938589,135.536865234375,253000
2024-03-20,135.65346636305446,136.08093792573945,135.17741579111308,135.98377990722656,220000
2024-03-21,136.31413429947685,137.5674049223811,135.33290324508192,137.12049865722656,255800
2024-03-22,137.96568472502892,138.3931563147583,137.0330329149223,137.55764770507812,276000
2024-03-25,137.17878514196465,139.94762638401343,137.14964069303667,138.888671875,316300
2024-03-26,138.7623528695866,140.20019986781864,138.55832692713028,139.12181091308594,314200
2024-03-27,139.57841110454743,141.01625793912805,139.57841110454743,140.54022216796875,218200
2024-03-28,140.69566694081686,141.21057184317644,139.55897441755064,139.79214477539062,247800
2024-04-01,139.6949673366477,139.6949673366477,138.07252940246653,138.23768615722656,204400
2024-04-02,137.80053208284255,137.80053208284255,136.3918296283509,136.625,202600
2024-04-03,136.66386346242072,137.16905855601934,135.886643662477,136.86788940429688,258700
2024-04-04,137.79082770836482,138.68462526566978,136.95531904023974,137.71310424804688,403600
2024-04-05,137.35365632292107,138.69434534542057,136.93589454599896,137.6936798095703,288300
2024-04-08,137.6353754876347,138.3251619062476,136.39182981890286,136.50840759277344,312500
2024-04-09,136.42095479960858,137.08159668050206,135.39114507938174,136.3140869140625,242600
2024-04-10,135.02200135989193,136.22669288767483,134.5070963512657,135.43003845214844,200700
2024-04-11,135.2939969887801,136.05178211487575,134.5070674212371,135.16770935058594,265300
2024-04-12,134.23505539317335,134.9928405906335,132.08800227511426,133.2926788330078,299200
2024-04-15,134.66253312030298,135.82835541361058,133.90474788844134,134.2642059326172,319600
2024-04-16,133.86589230029864,135.42033206493574,133.44814532279122,134.6431121826172,281700
2024-04-17,134.92483683201934,135.5077405185057,134.40993190471795,134.45849609375,565400
2024-04-18,134.448803796288,135.4689039112812,134.2836469889821,135.14830017089844,246600
2024-04-19,135.0996946928591,135.93520326422384,134.81796015303922,135.37171936035156,276600
2024-04-22,135.57574676552883,137.1301713362783,135.28428752594058,136.32382202148438,298800
2024-04-23,135.78947777534367,137.13989120783145,135.5465975549377,136.1586456298828,417200
2024-04-24,136.36329301656707,137.28894299900975,136.06124022029175,136.4217529296875,559200
2024-04-25,136.25610434963974,137.62997170625445,135.35968437114948,136.58738708496094,694400
2024-04-26,138.36076128932666,144.7039147819686,138.26331818639707,139.65667724609375,489500
2024-04-29,141.1864289502725,144.22647823824295,140.670013228058,142.62850952148438,676700
2024-04-30,142.004909646234,142.35568398559658,140.36795777329885,140.6797637939453,585100
2024-05-01,141.2741399676868,143.43724605293235,140.87464405380578,141.65414428710938,359600
2024-05-02,142.02439483195232,142.96953644520997,141.56643900417882,142.1802978515625,356500
2024-05-03,143.33976921113882,143.35926080100958,141.12794209420005,143.04745483398438,303300
2024-05-06,143.97311219834887,145.25928957827287,143.38849828106964,145.22030639648438,260200
2024-05-07,144.51877476610764,146.52597749323783,144.51877476610764,145.8828887939453,392900
2024-05-08,145.88286081958233,147.00338177988408,145.6490063734848,146.92543029785156,223500
2024-05-09,147.13009939399845,147.84138644002505,144.82084365124953,145.25930786132812,299100
2024-05-10,145.13262025255216,145.18134179717063,144.29466023538959,144.68441772460938,186300
2024-05-13,144.72339575642974,145.64904569541716,143.09619715747255,144.08030700683594,167500
2024-05-14,144.49930037798347,144.50903874086748,143.69057022672388,144.1095428466797,137600
2024-05-15,144.16801247457715,144.53826353142094,143.00850802044988,143.50543212890625,211100
2024-05-16,143.5931171809895,144.10953286493412,142.67720563052816,143.75875854492188,235500
2024-05-17,144.06081633480602,144.37260744920198,143.35926774275575,143.8854217529297,169500
2024-05-20,143.80748238942644,144.60647413522753,143.27157510477068,144.37261962890625,163400
2024-05-21,144.14850961965013,144.86953495193305,143.3202879692016,144.78184509277344,280400
2024-05-22,144.2751813532465,145.0156982700934,143.69055256202734,144.97671508789062,283300
2024-05-23,144.85006990865986,145.1326311002017,143.77825531785473,143.9341583251953,171700
2024-05-24,144.67466674114488,145.01570269104084,143.58337548984295,144.29466247558594,162300
2024-05-28,143.836724802742,143.9926278204598,142.08286789047202,142.95005798339844,318400
2024-05-29,141.91719871726886,142.94029173473893,140.80641583571733,141.12796020507812,229700
2024-05-30,141.41052828428462,143.21310648226037,141.28385524260108,142.39463806152344,328100
2024-05-31,142.34593730463553,144.04134916751755,142.18029592394424,143.90493774414062,358900
2024-06-03,144.69416726211233,144.69416726211233,142.53106134998768,144.36288452148438,266200
2024-06-04,143.86593620254556,144.58697641568443,142.9402863143089,144.39210510253906,287900
2024-06-05,143.93415699679983,144.40185114677604,143.3105598409219,144.1290283203125,229200
2024-06-06,144.2167184531987,144.2167184531987,141.67360827716013,142.21926879882812,197600
2024-06-07,142.0341260854559,142.57977170193118,141.7223200944826,141.81976318359375,179100
2024-06-10,141.11821719014912,142.07309703669912,140.2997487502491,141.85873413085938,125800
2024-06-11,141.19616629951713,142.0048963637283,140.65052068215246,141.7710418701172,147700
2024-06-12,142.49210149645975,142.56029977406186,140.37771700711468,142.0926055908203,221300
2024-06-13,142.15106550525925,142.77466270549132,141.30336701043458,142.0926055908203,232400
2024-06-14,141.37156596501876,141.65414204313348,139.99769849820458,141.040283203125,141500
2024-06-17,141.15719922802685,142.92080932391997,140.86489966231062,142.5797882080078,303800
2024-06-18,142.72591745789433,143.9049133850115,142.71617909634801,142.9305419921875,219900
2024-06-20,142.9013112258834,143.74900957513913,141.9366782001001,142.07308959960938,199900
2024-06-21,142.13156155358197,143.3690174832924,141.5859159092863,143.08645629882812,444100
2024-06-24,143.44697885929565,144.43108875923312,142.91107154042683,142.9597930908203,182900
2024-06-25,143.02797539856016,143.0377286281878,140.79667136986237,141.14744567871094,194500
2024-06-26,140.55305518720763,141.07920912929808,139.29612279527035,140.0269012451172,192400
2024-06-27,140.1828155517578,140.19256878158996,138.6238301546421,140.1828155517578,377300
2024-06-28,140.09511712498676,140.62128600098913,136.4996843206381,137.20123291015625,435100
2024-07-01,137.75665211276703,137.85408034544307,134.84327587630082,134.9894256591797,306400
2024-07-02,134.9309812961911,136.89921618292465,134.22943252206295,136.80177307128906,259400
2024-07-03,137.2694557978359,137.77611825136836,136.96740302461077,137.60073852539062,143300
2024-07-05,137.37664516545647,137.81510937338362,136.14892754198513,137.2889404296875,207000
2024-07-08,138.01971219176104,138.8479338848322,137.87356241897373,137.88330078125,249300
2024-07-09,137.24996524910202,137.64946111828195,136.16841232749826,136.4509735107422,238400
2024-07-10,137.1427912342902,138.0002429282775,136.96741149746342,137.6689453125,142000
2024-07-11,137.58123536275357,139.62742120011524,137.1427712169553,138.44842529296875,244500
2024-07-12,139.7346176851943,141.76131215018944,139.7346176851943,140.88436889648438,263900
2024-07-15,141.0500051627038,141.95617833865197,139.471528177945,139.75408935546875,319900
2024-07-16,140.1633376598292,141.5761732749764,140.1633376598292,140.85513305664062,178800
2024-07-17,140.6407683731012,142.03412724659594,140.6407683731012,141.14744567871094,242300
2024-07-18,140.90386821584644,143.4762084725293,140.89412985288294,142.53106689453125,434200
2024-07-19,142.8331035452224,142.8331035452224,140.95257383249924,142.19976806640625,251200
2024-07-22,142.24848193663573,143.77823725930674,141.52744176904503,143.417724609375,235700
2024-07-23,144.08029691478612,144.70389402799864,141.93668276735104,142.2971954345703,234500
2024-07-24,142.32643685826764,142.87208246083867,140.21203784671354,140.44589233398438,250600
2024-07-25,139.6053519777783,140.79780942821674,138.0317000908419,138.2956085205078,558100
2024-07-26,139.89854478345555,147.87430433163027,139.13615611277922,143.34884643554688,562800
2024-07-29,143.27066227743248,145.00070512899177,141.89249229543964,144.46311950683594,390900
2024-07-30,144.0526005590325,144.5608497597373,142.12707613546905,142.4593963623047,411000
2024-07-31,143.1924622534942,145.48941215296958,142.12707481683992,143.66162109375,280600
2024-08-01,143.56388751848672,146.1638212279078,142.14661231103588,143.7104949951172,335300
2024-08-02,143.2706626945803,143.68117855788788,140.50455386188017,142.4007568359375,213500
2024-08-05,140.19175816641953,140.19175816641953,136.33094072792318,137.50384521484375,448500
2024-08-06,138.13919923295967,142.79172750727204,137.92416497226154,141.6579132080078,476000
2024-08-07,142.71351863316335,143.93529731272562,140.23087091858068,140.35794067382812,353600
2024-08-08,141.19851020506624,142.86012605228407,141.19851020506624,142.27366638183594,268600
2024-08-09,142.12708691616425,142.12708691616425,140.2308838444139,140.70004272460938,263200
2024-08-12,140.7196023508052,140.92485284608276,139.54669763491262,140.05494689941406,221100
2024-08-13,140.26995040499233,142.01954569055792,139.8692183640081,141.11053466796875,212000
2024-08-14,140.8759715764874,141.54061200957045,140.25042149828965,140.65115356445312,115700
2024-08-15,141.72633364426625,144.01349986295762,141.72633364426625,143.69094848632812,277500
2024-08-16,142.8112726046603,143.52478720605873,142.32256111329048,143.40750122070312,250600
2024-08-19,143.01653650230918,144.39469155874292,142.62555836471478,143.65185546875,191200
2024-08-20,143.66162057853262,144.961594887798,143.66162057853262,144.76611328125,387200
2024-08-21,144.82477331506968,146.19317455052297,144.13081129301386,145.95858764648438,267300
2024-08-22,146.1931430052955,147.0043908471752,145.31345349068744,145.62623596191406,200400
2024-08-23,146.28111414215468,147.131467288796,146.06607991196887,147.0435028076172,221400
2024-08-26,147.27808563075303,149.22316270583966,146.7502837904236,146.76983642578125,235500
2024-08-27,146.62321074365258,148.1186666577194,146.4570506325663,147.78634643554688,208300
2024-08-28,147.52243900517198,148.53896722738338,147.52243900517198,148.11866760253906,249000
2024-08-29,149.10590366425365,149.45777659281688,147.7961602301602,148.8419952392578,187100
2024-08-30,148.76376076539145,149.97577051724159,148.21640633368162,149.73141479492188,178500
2024-09-03,148.67581490735162,148.93972329651422,146.34954336691524,146.6525421142578,362400
2024-09-04,146.22248747836645,147.4931254531261,146.22248747836645,147.32696533203125,175800
2024-09-05,147.66905729781163,148.33369772794828,146.56456461999554,147.3171844482422,200600
2024-09-06,146.9848666423844,149.66299595561912,146.9848666423844,148.93971252441406,319100
2024-09-09,149.1254188548598,149.60434653021005,148.02092620644984,148.48031616210938,241500
2024-09-10,148.4412283503302,149.34045573341479,148.02094361320775,148.08935546875,158100
2024-09-11,147.38560462789548,147.47358403097817,145.27438232544125,147.43447875976562,178000
2024-09-12,147.48334040431294,148.57804927691873,146.58411312834534,148.52919006347656,200400
2024-09-13,148.7540307356904,149.55550995868282,148.47056967180396,148.8419952392578,138600
2024-09-16,149.58480892545694,149.711878687663,148.63672233934471,149.53594970703125,182900
2024-09-17,150.52314424187358,152.05770553358903,148.44122844829255,149.57504272460938,259900
2024-09-18,150.2885297114155,151.97948195392672,149.26224766629488,149.61412048339844,214200
2024-09-19,151.5201208780258,155.22454756499997,151.5201208780258,153.357666015625,412400
2024-09-20,152.78096256205154,152.78096256205154,150.99227696544378,152.38999938964844,663300
2024-09-23,152.64412373622483,153.3674220098268,151.2464162283608,152.43887329101562,315800
2024-09-24,152.65389777391002,153.5335873118005,152.50729030807304,153.09375,246200
2024-09-25,153.7486153545566,154.30573861662077,152.35089294120183,153.59222412109375,284100
2024-09-26,154.37420696195807,155.46891606253078,154.13962004856694,154.8042755126953,371600
2024-09-27,155.0974630619756,157.9026770071578,154.6869472219151,156.2801513671875,354300
2024-09-30,155.6936899424124,156.79818261159085,155.34181709559473,156.57337951660156,289800
2024-10-01,156.91547599488553,156.91547599488553,155.45912532444558,156.3583526611328,192200
2024-10-02,156.25083362745252,156.49518936533394,154.39373598527015,155.1658935546875,186900
2024-10-03,154.42304427588758,156.83727995285665,153.10351743844512,155.35159301757812,367000
2024-10-04,156.32902451153032,157.82448038886116,155.73279593261282,156.95457458496094,350500
2024-10-07,155.79144712681207,156.03580287015131,154.4425986510062,155.1072540283203,223300
2024-10-08,154.70649792015064,155.42979624698927,153.5531460383624,155.0876922607422,205900
2024-10-09,154.77493978776437,156.43655592393026,154.55012175690058,156.09445190429688,152600
2024-10-10,154.4817068065256,155.7816811750794,154.4817068065256,155.6252899169922,168500
2024-10-11,157.30643565031355,158.26430586600358,156.729759749031,157.9026641845703,194400
2024-10-14,161.26503180438755,163.97248287121053,159.76957575499546,163.4153594970703,469700
2024-10-15,163.54240800657777,165.82957403020615,162.73114520381247,164.87168884277344,397300
2024-10-16,164.89123875307473,165.37995019864655,162.1740043088386,162.29129028320312,330000
2024-10-17,163.21007464638268,164.5198326911605,162.76046845617475,164.0995330810547,238200
2024-10-18,165.28223546267512,165.28223546267512,163.99202994227778,164.82284545898438,171500
2024-10-21,164.66643721782916,164.68598985183766,162.5454313137494,162.5747528076172,217900
2024-10-22,161.97853331620303,162.613852271317,161.0890748476109,162.06649780273438,228500
2024-10-23,162.7506980951874,164.18751109598531,162.40860899432064,163.86495971679688,318100
2024-10-24,164.96263491104682,164.97243006379486,162.8359053646187,163.22793579101562,547300
2024-10-25,165.5506581898616,166.4621158464969,161.32662941673635,165.54086303710938,518900
2024-10-28,166.51108160800558,167.99097194553002,165.3938212300065,165.72705078125,350000
2024-10-29,165.6584719985112,166.1093032703483,164.29619798424773,165.33505249023438,338100
2024-10-30,164.99203323960487,166.8051234675815,164.76661013936223,165.65846252441406,290300
2024-10-31,165.71726236332717,166.8835285592377,164.511800602721,164.56080627441406,329900
2024-11-01,164.74701596713246,167.57937026995276,164.27657947244072,166.0308837890625,316300
2024-11-04,166.24649215601715,167.16774490614142,164.82540251348084,164.90380859375,191800
2024-11-05,164.39420326637682,166.9619390225879,164.39420326637682,166.91293334960938,206200
2024-11-06,171.6563823010005,171.6563823010005,168.7064263444236,169.70608520507812,264100
2024-11-07,170.72535224909808,171.9602294869981,170.07851321538217,171.22518920898438,412300
2024-11-08,171.21535702617146,174.29272466184403,171.0095541493443,172.25421142578125,309200
2024-11-11,172.80306637183605,174.47894973522423,172.39143067982758,172.63644409179688,189100
2024-11-12,173.12646726649535,173.70471027192264,171.46037909110905,172.19541931152344,179800
2024-11-13,171.99940490722656,172.87165200345066,171.55838378296605,171.99940490722656,168400
2024-11-14,171.65637889220199,172.28361258645606,170.4411220214521,170.62733459472656,198200
2024-11-15,169.51987152643795,170.29410728655165,162.8555040894364,163.16912841796875,620500
2024-11-18,163.07110850953194,164.47259285308147,161.05220060257204,163.36512756347656,384400
2024-11-19,163.10050135971352,164.32556823234182,162.88488839377655,163.5709228515625,287600
2024-11-20,163.6689523651395,165.57025875538363,162.3458740139482,165.36444091796875,221800
2024-11-21,165.32524989622468,166.83452591248917,164.3942019349008,166.49151611328125,205100
2024-11-22,166.7855161620559,168.63783184110315,166.7855161620559,168.0889892578125,241600
2024-11-25,168.61821351971585,170.54892017809755,168.31439931687723,169.05923461914062,270100
2024-11-26,169.41204948980848,169.41204948980848,167.74596152202398,168.6083984375,140300
2024-11-27,169.22586404114253,170.41173555223975,168.0988083114946,168.3046112060547,167200
2024-11-29,169.14745603968092,170.0295132982539,168.65742921417322,169.5100860595703,117300
2024-12-02,169.52966938718723,169.65708114199288,167.43235525852162,169.31405639648438,170900
2024-12-03,169.99030199549844,169.99030199549844,167.6773747915681,168.96124267578125,160100
2024-12-04,168.46142635281086,169.4414800322046,167.61857959035495,169.1474609375,173400
2024-12-05,168.57901699001582,169.0004478209138,167.1285418265622,167.6871795654297,245000
2024-12-06,168.17721164137058,169.2062560061618,167.44217140684438,167.73617553710938,209200
2024-12-09,168.13799201141873,170.00989796299024,166.8345189382819,167.3833465576172,301700
2024-12-10,167.314763972231,167.95179287684704,164.83522938002554,167.5009765625,287000
2024-12-11,168.45163097155876,170.62735133322187,168.3242192079917,168.873046875,418600
2024-12-12,168.2457700353649,169.15722749886876,167.3735230834249,168.21636962890625,178300
2024-12-13,167.5009593612563,167.58916059355795,166.43270455823205,166.80511474609375,153200
2024-12-16,166.74632140113093,167.52055717676743,164.24718169284583,164.28639221191406,236100
2024-12-17,163.57093094101776,163.5807410473189,159.59191593464618,159.83692932128906,511900
2024-12-18,160.42498045548814,161.14041541532916,154.7602716927562,155.05429077148438,468600
2024-12-19,155.34827572101605,158.3472520085594,155.07386193592262,155.7010955810547,404700
2024-12-20,155.55410914655246,156.59296357357135,154.32904214215637,155.02487182617188,730200
2024-12-23,154.0350301134896,155.7305187378595,153.82922722182215,155.3581085205078,194900
2024-12-24,155.61291680874774,156.2401505443862,154.77007007450553,156.1715545654297,100500
2024-12-26,155.26008773522096,156.44595915755792,155.26008773522096,155.6815185546875,164500
2024-12-27,154.6720636172203,156.39695253937097,154.46624578488056,154.99546813964844,145000
2024-12-30,153.86842421673967,154.34865589247661,151.90831690187673,153.6038055419922,221700
2024-12-31,154.14284841492992,155.0935017229513,153.06478333745213,153.96644592285156,317100
2025-01-02,154.50542966476186,154.95626085871288,150.38920791910837,151.08505249023438,239400
2025-01-03,150.9674458911304,152.61394367101406,149.82078500459767,152.39833068847656,250700
2025-01-06,150.92825644983694,151.55549016417848,148.41932159247074,149.8697967529297,369000
2025-01-07,152.8099679524286,152.94717486941659,149.55619751195616,150.36962890625,361200
2025-01-08,149.84040933022172,151.18307811143225,149.05636338071972,151.0752716064453,228600
2025-01-10,149.67380144035604,151.22228807240447,149.53659452128502,150.3892364501953,350800
2025-01-13,149.87957661755325,151.61427552341226,149.87957661755325,150.8204345703125,349300
2025-01-14,151.72208498613796,152.34931864881253,150.41861199327377,151.5260772705078,196900
2025-01-15,153.0059656935918,153.7900115770172,151.09486413391397,152.45713806152344,206100
2025-01-16,152.78054436817854,154.0350116916582,152.2121115255971,153.29017639160156,346300
2025-01-17,153.83901445152966,154.79946279018606,152.5747369358163,152.9765625,231900
2025-01-21,153.5940154588304,157.0633989407048,153.5940154588304,156.64198303222656,270900
2025-01-22,156.16174421991363,157.54362344855716,155.18169057482152,155.8971405029297,280000
2025-01-23,155.29929122166507,156.6223545339136,154.58384136708125,156.43614196777344,149800
2025-01-24,156.4655345596154,157.26918560397357,154.08401174390775,155.14247131347656,329600
2025-01-27,155.09348331003815,155.75011743220608,153.52539155704252,155.29930114746094,317000
2025-01-28,154.42703431386295,157.15158179706276,154.42703431386295,155.26007080078125,204300
2025-01-29,155.61289915746963,155.65210967336728,153.49597993190142,153.97621154785156,265800
2025-01-30,154.67206164041292,155.51489335460406,153.4567898296652,154.9758758544922,274200
2025-01-31,154.75045154888468,156.21073674071707,153.63319108572594,154.01541137695312,834100
2025-02-03,151.49670519361857,153.62341996252314,151.06547916592677,152.8687744140625,364600
2025-02-04,152.9765565302281,155.299293635513,152.9765565302281,154.554443359375,302400
2025-02-05,155.56680214959917,156.92315132969566,155.07537302605425,155.6061248779297,262600
2025-02-06,157.1000465610709,157.1000465610709,152.70666933390916,153.76815795898438,446600
2025-02-07,154.91812350431175,155.1933226339648,139.60518908843227,140.72564697265625,1221500
2025-02-10,141.7871257185982,142.1213089214259,138.4847213993473,140.8239288330078,621900
2025-02-11,139.83121423337005,140.61750364616478,137.8556600216051,139.85086059570312,377300
2025-02-12,138.553529027578,141.0303360226166,137.53134804673115,139.27101135253906,423500
2025-02-13,140.3030162479326,141.3153590533059,139.0351356946295,140.3226776123047,665900
2025-02-14,141.22690931883105,142.81913494082784,140.27353558295644,142.30804443359375,512800
2025-02-18,142.3080350119088,144.7651805608191,141.4332917963858,144.38186645507812,489600
2025-02-19,143.63490379036486,144.96176842430987,143.11399011860314,144.51947021484375,331000
2025-02-20,144.45068672182066,144.89296996096067,143.41868249900884,144.1656494140625,283100
2025-02-21,144.50962590768984,144.86345542520576,142.71099377675264,143.83145141601562,451900
2025-02-24,143.67420452994452,144.76517773223307,141.88541040384698,143.11398315429688,353300
2025-02-25,143.3793614383485,145.7873610696006,143.22210052435642,145.17799377441406,336700
2025-02-26,144.13615069776068,146.62278077273558,144.10666615119783,144.12632751464844,735600
2025-02-27,143.72335768500795,144.65707002297643,142.86827580669944,143.13365173339844,262800
2025-02-28,143.6545685132905,144.43101994873356,142.1507965581812,144.2344512939453,348700
2025-03-03,144.45066986764067,146.2886098899811,143.19261258000728,144.07717895507812,394100
2025-03-04,143.04517170760187,145.413863500686,142.65203443781988,143.43832397460938,490100
2025-03-05,143.54643172433074,146.2984374655058,143.54643172433074,145.8954620361328,445100
2025-03-06,145.03056341837237,148.9030273882908,144.53913428507767,148.55902099609375,471700
2025-03-07,147.92999453807744,150.7311466390258,146.62279122411667,150.1610870361328,480200
2025-03-10,149.46325521067857,151.36016435752973,147.6646228865031,147.9889678955078,391100
2025-03-11,147.7628883461735,147.9791183355485,144.7455216717179,145.35488891601562,304000
2025-03-12,145.69890235666847,145.69890235666847,143.0648346293028,143.5267791748047,299700
2025-03-13,143.900274240468,144.67672562820923,141.29569098355023,142.27854919433594,238400
2025-03-14,142.74048587257624,144.3720340117381,142.0623113450195,144.14598083496094,223600
2025-03-17,143.99853726172162,145.46300125443267,143.35968548483189,145.3057403564453,225200
2025-03-18,144.86347189053822,145.00107144092166,143.28106956251574,143.7921600341797,219900
2025-03-19,143.8314663428333,144.93227773224964,142.97638450227305,144.4604949951172,279600
2025-03-20,143.62507975791536,144.8929602918042,141.26621097787046,142.7110137939453,332800
2025-03-21,141.5315735327772,142.96655302987472,139.9196867674318,142.3375244140625,601900
2025-03-24,143.2515633066503,145.63990121148305,142.42596612946545,145.4531707763672,463800
2025-03-25,145.94461117942933,146.67191660765496,143.4284817335018,144.68655395507812,325200
2025-03-26,144.52930198564368,146.15101202434067,143.79215833219487,146.01341247558594,630400
2025-03-27,145.73820579296662,147.32060801990121,144.50963310116106,146.7898712158203,312700
2025-03-28,146.73090786413923,147.42874385047818,143.26141929196947,144.41136169433594,239800
2025-03-31,144.06735434534886,146.5343229870739,143.59558661646503,145.8365020751953,372500
2025-04-01,146.3279289386792,147.45820983366664,144.85364168579534,146.54415893554688,240000
2025-04-02,145.4630159103769,148.53936692435062,145.4630159103769,147.94964599609375,247600
2025-04-03,144.24427337200635,147.4778854578111,143.9494278906975,146.1215362548828,352900
2025-04-04,142.73066750752537,145.42370434629547,137.63945428633932,137.7770538330078,531600
2025-04-07,134.00289075907227,139.68381026775526,128.6070085425134,132.34185791015625,629900
2025-04-08,135.02506928764396,136.92197848483247,129.0296280479611,131.36883544921875,473800
2025-04-09,130.89704037690942,141.94437131089686,129.06893862699687,141.28585815429688,491800
2025-04-10,137.60014014324574,140.9123672890104,135.21180205228458,138.34710693359375,309000
2025-04-11,138.45522828256912,142.2294151261458,137.3446087271347,141.6396942138672,203000
2025-04-14,143.30071647529343,143.8904223472296,141.32516206166184,143.29087829589844,249300
2025-04-15,143.59560325421714,144.02804830741772,141.30554162152515,141.47262573242188,250700
2025-04-16,141.5905608939007,143.3204010585323,140.12611166033892,142.5144500732422,307700
2025-04-17,142.9075815858467,143.26141115086992,138.2979890544082,141.364501953125,390600
2025-04-21,140.84358440349993,141.58072806053443,138.6812993423107,140.13592529296875,291600
2025-04-22,142.02301901433995,144.3032573833429,141.12861439560723,143.5169677734375,217800
2025-04-23,145.3352389782031,146.76039538307882,144.69638713943039,145.5121612548828,537000
2025-04-24,145.39420527769312,149.3944453214828,142.9665593386668,148.86370849609375,424500
2025-04-25,148.26414612424384,150.37728497964335,145.04037284864117,146.50482177734375,220500
2025-04-28,147.23215717254052,148.44106852493894,145.73820855180134,147.1338653564453,235200
2025-04-29,147.1928352219858,149.37478157519996,146.4556915890682,147.7235870361328,359900
2025-04-30,146.51468782594912,147.41891562430362,144.68657086484222,147.3795928955078,556200
2025-05-01,146.34446689472773,148.3949671666266,144.87560983167245,146.1768798828125,445300
2025-05-02,150.8200800146687,150.82993276495682,145.69382189987473,149.8441162109375,431600
2025-05-05,149.28220335297306,151.04682352421423,148.74001624656938,149.3314971923828,267600
2025-05-06,148.11895410159835,149.88355931551433,147.30072446354023,148.77944946289062,312000
2025-05-07,149.725822860132,150.97779905174502,148.4836843764286,149.24276733398438,318400
2025-05-08,149.6370904773431,152.3776743797429,149.0949033979698,151.18482971191406,302500
2025-05-09,151.72702915659627,152.11149701025283,150.77078589758978,151.14540100097656,231600
2025-05-12,153.58035336298764,154.36900960970033,151.52000038825545,153.31419372558594,352500
2025-05-13,154.09298971226121,154.09298971226121,151.02709949704072,151.4608612060547,339400
2025-05-14,151.44115218055256,151.44115218055256,148.8287440194347,150.31732177734375,350100
2025-05-15,150.18915951898913,153.2747551350197,150.18915951898913,152.7522735595703,278100
2025-05-16,152.9790195330319,154.9210795243073,152.3973913234781,154.78306579589844,278600
2025-05-19,154.14229995484683,156.0942128107709,154.09300611132787,155.83790588378906,185400
2025-05-20,157.98696796016725,157.98696796016725,155.6703079013984,156.28150939941406,388100
2025-05-21,154.6351912204993,155.413979709526,153.61980133414392,154.2310028076172,319800
2025-05-22,154.14229666137166,155.02952565627956,153.35364030902645,154.4281768798828,278900
2025-05-23,152.91987932375972,153.96484260280818,152.07207637318606,153.72825622558594,260500
2025-05-27,154.8027705397575,156.1927754755183,154.46759652531446,155.916748046875,352800
2025-05-28,155.91675648544185,156.58710455060864,155.02951252332593,155.1675262451172,364400
2025-05-29,155.59144226540175,156.41952463373346,154.59577287317205,156.0843505859375,232100
2025-05-30,155.9956163554189,156.52795067401013,154.31971618579314,156.15333557128906,335100
2025-06-02,155.30554827866962,156.813861590753,153.05788752213863,154.6844940185547,349600
2025-06-03,153.9648187854225,155.20695724316363,153.78737902995462,154.04368591308594,397800
2025-06-04,154.2704388516904,154.30001214509375,148.15836414730086,148.27667236328125,831900
2025-06-05,149.43008223768163,151.1651140408049,146.9359674396561,150.32717895507812,482400
2025-06-06,152.18050703516937,152.28894746522036,150.05115456510006,151.1355438232422,264700
2025-06-09,150.544055582443,151.007375533086,149.21319719105352,149.44979858398438,388400
2025-06-10,150.00187555238352,150.82995798605992,148.72031080938757,150.3666229248047,323500
2025-06-11,150.82994254149838,151.4115707359019,149.4498052933599,149.7652587890625,380800
2025-06-12,149.26247896131767,152.42694148321849,149.26247896131767,152.16078186035156,337200
2025-06-13,150.829935873921,151.53972501083467,148.59212803830783,149.0160369873047,361200
2025-06-16,149.09489874958857,150.73134277186625,148.97659053611832,149.53851318359375,346200
2025-06-17,148.52313648415543,149.11461743433793,147.01483824975645,147.33029174804688,379700
2025-06-18,147.0049610386582,148.59212630654162,147.0049610386582,147.5767364501953,383200
2025-06-20,148.15837561472694,148.6315784305405,146.8768260217442,148.16824340820312,570500
2025-06-23,147.3697197894407,151.75660037829923,147.3697197894407,151.6087188720703,356500
2025-06-24,152.37767518899636,152.37767518899636,151.0073757093355,151.68759155273438,246600
2025-06-25,151.67775053438675,152.33824588551536,150.6032139948955,151.7467498779297,264700
2025-06-26,152.33824953068293,153.37336004754195,150.94824440925422,152.28895568847656,658200
2025-06-27,152.46640393058135,153.89583503865111,152.04249495674745,153.60995483398438,643100
2025-06-30,153.81695259670582,154.28028757107535,152.4170949235091,154.21127319335938,315500
2025-07-01,154.2112909513434,157.53350328229894,153.7479709659874,156.75469970703125,338300
2025-07-02,156.7645627082632,158.2531403852606,156.399800331021,158.04612731933594,293500
2025-07-03,158.3221432480809,159.07135840752164,157.55320754586447,158.75588989257812,235100
2025-07-07,158.66717993630388,160.0670377135844,158.27285931033134,158.6770477294922,313900
2025-07-08,158.61788810431491,160.2740678475626,157.58279268744894,157.7799530029297,342700
2025-07-09,157.66165312376677,157.74052026260657,155.8576218513925,157.46449279785156,252800
2025-07-10,156.93215349895374,158.08555716392323,156.0843505859375,156.0843505859375,361600
2025-07-11,156.31107345675375,156.31107345675375,154.40845469060778,155.66043090820312,292000
2025-07-14,154.91121519337966,156.6856880276844,154.46760074539523,155.32525634765625,276600
2025-07-15,155.50270521521296,155.7590120983507,151.8847603468732,151.97348022460938,254200
2025-07-16,151.73689710833995,153.4029296552156,151.37214976104823,152.7818603515625,261900
2025-07-17,152.5452588316346,154.1915706701163,152.31851019393284,153.81695556640625,397700
2025-07-18,154.62533756237983,154.98023213510643,152.72270372898328,154.16200256347656,243100
2025-07-21,154.20143682439874,154.44789098408017,153.03818041103906,153.2451934814453,205900
2025-07-22,153.8958333551263,157.09973737439896,153.0283099148117,156.9124298095703,449900
2025-07-23,157.7996815698846,159.55443403890214,156.88286424485372,159.36712646484375,450500
2025-07-24,159.11996916058192,162.4020082574344,157.96333091025235,159.9701385498047,431900
2025-07-25,160.19750774667867,161.22561221674488,158.94202169024894,159.14962768554688,296300
2025-07-28,159.35722424092228,160.12830639187274,156.35198291982778,156.88580322265625,308500
2025-07-29,157.23180681567746,157.7755224517839,155.4227248360997,157.0044403076172,388200
2025-07-30,156.98465159805863,157.11315522177728,153.14900170497543,154.99761962890625,580700
2025-07-31,153.99917438750097,155.55123391765005,153.4060273513415,155.3436279296875,679700
2025-08-01,155.17559628438335,156.31244400829624,139.47712391688526,139.73416137695312,1012300
2025-08-04,141.4838983520282,141.4838983520282,135.51295211602235,137.53952026367188,839000
2025-08-05,137.7471203907678,139.4573546226765,136.1159885271504,138.6170654296875,540800
2025-08-06,138.7060232610084,139.15087600319592,135.9775800358165,136.9562530517578,515300
2025-08-07,138.2018575966745,139.87254051260254,137.32203237332467,138.88397216796875,564000
2025-08-08,139.08169477744622,140.42614844511056,138.97295164681316,139.14100646972656,428700
2025-08-11,139.71437362843554,140.00105182700324,137.60871811175764,138.27105712890625,349500
2025-08-12,138.61705933663222,139.47710899953265,137.6383712108668,137.88551330566406,286100
2025-08-13,138.093132926373,139.82312776063122,137.6581603831194,139.813232421875,729900
2025-08-14,138.58740244327777,138.58740244327777,134.8802710493718,136.758544921875,875800
2025-08-15,136.7783310639517,137.36158282800585,136.2939270940797,137.13421630859375,770500
2025-08-18,137.30227391230105,137.97450831438334,135.77988510875218,136.31370544433594,529500
2025-08-19,136.68934510491053,138.91362381311117,136.68934510491053,137.99424743652344,333100
2025-08-20,138.3105996295714,139.6352775807112,137.6680211600025,139.56607055664062,519200
2025-08-21,139.02237682659523,140.27784781496257,138.6368357597722,139.03225708007812,270400
2025-08-22,139.6451775909557,141.69152157825582,139.57598564145147,139.813232421875,356500
2025-08-25,139.35848463440877,139.99116778923627,137.3714676366746,137.964599609375,245800
2025-08-26,137.4802014096915,138.5577372418402,136.43230633558758,138.11288452148438,442900
2025-08-27,137.49997281529963,138.96306488334525,137.44066112579765,137.84597778320312,729100
2025-08-28,138.56762766903606,138.56762766903606,135.8292890396428,137.30226135253906,320800
2025-08-29,137.57906986016718,138.27106476072905,136.76845157218256,137.6779327392578,370700
2025-09-02,135.84906508939116,136.94637659553402,134.6133546133004,134.85061645507812,310600
2025-09-03,134.5243943101381,134.62324210292473,132.9031426817368,133.67422485351562,382300
2025-09-04,134.79130216014153,136.8969425133348,133.49626493537275,136.87718200683594,401800
2025-09-05,137.43077574465525,139.21020178510477,136.0566663464884,137.03533935546875,440800
2025-09-08,137.00570288208334,138.39958806786993,136.10610193939624,136.71902465820312,616100
2025-09-09,136.67946624256135,137.88552093868483,133.55560145550504,135.48330688476562,637100
2025-09-10,134.57382046722492,135.88861824297987,133.30845412810189,134.69244384765625,685100
2025-09-11,135.18672513791338,136.6992335433112,134.31678014184178,135.53273010253906,477500
2025-09-12,135.05819131395336,135.48328351106477,133.674201778984,133.68408203125,261300
2025-09-15,134.41564821558472,134.6133588811563,133.09097016346266,133.30845642089844,298000
2025-09-16,133.2491099534109,133.871912788061,132.56701052064494,133.66432189941406,474800
2025-09-17,133.8719349467548,135.50308190645822,132.6560000017811,133.11073303222656,377400
2025-09-18,133.35786944137865,133.9608967611341,132.53737095397892,132.9624481201172,254800
2025-09-19,133.12062346030297,133.5555959668464,131.81570594067267,132.90313720703125,877200
2025-09-22,132.58677892796058,133.39741219498762,131.1533578735173,131.20278930664062,402100
2025-09-23,131.48947627590215,132.41873297707602,130.46137178622766,130.51080322265625,319700
2025-09-24,130.49103409799787,131.7860563410793,129.83857530726212,129.9967498779297,353300
2025-09-25,129.99674318999885,131.0050871706818,128.7808082948073,129.32452392578125,388700
2025-09-26,129.82869272268246,130.9161089366979,129.46292723339218,130.7777099609375,274400
2025-09-29,130.88645346701895,131.16325141933544,129.85834894189443,130.75794982910156,540600
2025-09-30,130.20434429084327,132.23089734514227,130.20434429084327,132.13204956054688,310400
2025-10-01,131.80581420869075,132.82403835835518,130.7974703117304,132.60655212402344,310100
2025-10-02,132.1320554290962,132.85370613455356,131.44006056877018,131.65753173828125,398500
2025-10-03,130.95565622479634,132.0529677443783,130.91610504183745,131.69708251953125,402000
2025-10-06,131.37085466398543,131.67730845586786,129.90777764901935,130.37240600585938,447100
2025-10-07,130.59976556964224,130.99518687665005,128.32605534345748,129.09713745117188,438800
2025-10-08,129.6803765561391,130.5008900185806,128.77089557092012,130.10546875,361300
2025-10-09,130.19444872342635,131.32141603944422,128.71159619791044,129.11691284179688,554200
2025-10-10,129.4431381350315,130.5008983927555,128.40513838295638,129.43324279785156,426000
2025-10-13,129.49258620457584,130.8370398948493,128.67207258406597,128.73138427734375,311400
2025-10-14,128.55343940983934,129.5617834901798,127.56487092285874,128.31619262695312,337400
2025-10-15,128.3161756767913,128.89942738681822,126.39835065189028,126.63561248779297,438300
2025-10-16,126.97171654630597,128.0195965446806,126.38845731965263,127.68348693847656,352700
2025-10-17,127.68349986264782,128.61275658450555,127.37704606806854,127.86143493652344,339700
2025-10-20,128.12834444492697,128.6028530293001,126.55652438869629,128.51388549804688,240500
2025-10-21,129.11692867987182,130.263671727181,127.64395622680965,129.077392578125,311600
2025-10-22,129.1564481138655,130.59976453326686,128.49410913348765,128.5731964111328,357500
2025-10-23,128.73197123448563,130.50805690169727,128.65259098954968,129.75396728515625,378600
2025-10-24,129.73411268037526,129.87302431778892,127.54127703952456,127.87864685058594,489300
2025-10-27,128.1366224648553,128.89071205489756,127.45198112404552,127.7794189453125,521700
2025-10-28,127.74964944095181,128.10685294985234,126.47959588491281,127.10470581054688,413500
2025-10-29,126.29107194406481,126.50936382227088,122.46106236313027,123.34414672851562,651100
2025-10-30,123.07624728804052,124.54474389238906,122.08401698830151,123.39376068115234,702600
2025-10-31,114.39423553008093,117.18240033192052,102.42794018569283,115.108642578125,2758200
2025-11-03,115.18801418737364,115.18801418737364,107.44862223530946,112.24109649658203,1661000
2025-11-04,113.47145606328911,115.0987131260131,111.65567282386979,113.29285430908203,1029100
2025-11-05,113.44168707726934,115.13839990799084,111.8938027289756,114.67205047607422,896900
2025-11-06,114.12632587945619,116.05125508565277,112.91581127124762,115.24755096435547,880300
2025-11-07,115.32692576494694,116.01155949259733,113.7988902652183,115.31700134277344,697200
2025-11-10,115.08879219606841,115.86273063108003,113.11425598749823,115.47576141357422,514000
2025-11-11,116.05125494853503,118.58144524090463,116.05125494853503,117.35107421875,484800
2025-11-12,117.42052991643766,118.74019803055835,116.99387815530137,117.24193572998047,547500
2025-11-13,117.3808436819808,120.93302228660532,117.3808436819808,119.26607513427734,679400
2025-11-14,118.8394216459119,119.75227929014665,117.47014653473461,117.68843841552734,521200
2025-11-17,117.56937122538191,118.56160156840677,116.65652112662708,118.41276550292969,820200
2025-11-18,118.73028226930452,119.1767828797841,117.14270772067383,118.38299560546875,817400
2025-11-19,118.5814455351289,118.5814455351289,116.79542796312874,117.08317565917969,598900
2025-11-20,117.08318073043249,118.68067219177061,116.45807833821543,117.65867614746094,507400
2025-11-21,117.21216086173891,121.29022793939164,117.21216086173891,120.57582092285156,509100
2025-11-24,119.91103668470342,121.44899676039621,119.50422617630296,120.5262222290039,740000
2025-11-25,121.45891525209124,123.11593804438662,121.45891525209124,122.48091125488281,543600
2025-11-26,122.06416725085363,123.55251268958358,122.06416725085363,122.84803009033203,538000
2025-11-28,122.66943052847252,125.10039933060551,122.66943052847252,123.78073120117188,315700
2025-12-01,123.90971816318398,123.9890984046682,122.07409360703122,122.32215118408203,536800
2025-12-02,122.80834273936739,122.8976474041654,119.86142506313116,120.65520477294922,325400
2025-12-03,120.50636459439258,123.29453683156571,120.46668204485655,121.11162567138672,543100
2025-12-04,121.25053931737644,123.11593712141129,120.9826404679227,121.07193756103516,708000
2025-12-05,121.0421717426921,122.55036603254122,119.6828210814482,120.96279907226562,537000
2025-12-08,119.98048683677486,121.15131890116776,118.37307858523162,119.13709259033203,496600
2025-12-09,118.67074319979267,118.91880077653559,114.46368881786525,114.82089233398438,640300
2025-12-10,115.2673979458709,116.88473826129054,114.23547747342825,116.25962829589844,734700
2025-12-11,117.04347933154511,117.74796190032998,116.24969967395411,117.09309387207031,389700
2025-12-12,117.5991381446397,120.69489957224027,116.73590258212603,120.5262222290039,656400
2025-12-15,120.53613763713133,121.508519071394,119.54390735802136,121.37953186035156,588600
2025-12-16,121.71688801826957,122.88772006482098,118.59136108661724,121.87564849853516,644800
2025-12-17,121.16124681536517,123.63189822994175,119.14702044648554,122.66943359375,567300
2025-12-18,122.70911937736454,123.15562755440962,121.08186229106413,121.66728210449219,457100
2025-12-19,122.38168448192317,123.36399795279324,120.31785116207733,120.44683837890625,1300400
2025-12-22,120.44683702770696,122.73888662712453,120.1293236305144,121.78634643554688,527800
2025-12-23,121.91534038479175,122.07409329724082,120.37738038293297,121.2406234741211,311700
2025-12-24,121.57798039532113,122.21300719710743,120.81396637664959,121.79627227783203,198000
2025-12-26,121.41922894554897,122.52060522415447,120.77427771310445,122.29238891601562,306000
2025-12-29,122.33208105068077,123.34415267923492,121.36961639767443,122.25270080566406,400200
2025-12-30,121.8458854019756,123.3342308707125,121.46883303835433,121.78634643554688,289800
2025-12-31,120.57582164498164,122.37176361957204,120.40714431232067,121.01240539550781,314300
2026-01-02,120.79411858954116,122.04433092844077,119.84157837851366,121.58790588378906,295100
2026-01-05,120.81396333104647,123.61205247154165,120.81396333104647,122.04432678222656,435700
2026-01-06,121.2703893294616,121.89549169761267,119.17678277613919,119.62328338623047,777200
2026-01-07,119.73243542753909,121.00248907397176,116.6962129559037,119.50422668457031,478500
2026-01-08,118.98826090452039,122.41146012961788,118.59136725333443,121.48868560791016,330000
2026-01-09,121.13148146291526,123.9990265337246,120.51629592819934,122.88772583007812,429100
2026-01-12,123.0365583546262,124.32646078477775,122.02448676997972,124.15777587890625,477300
2026-01-13,124.07840343065625,124.46537264637453,121.58790323017156,122.54044342041016,351900
2026-01-14,123.14570153346037,126.1720069370604,123.14570153346037,125.86441040039062,611700
2026-01-15,126.15215809530929,126.23153833510459,123.5525120178855,124.13793182373047,381000
2026-01-16,123.03655288156622,124.22722617172847,122.28245576040153,123.74103546142578,363400
2026-01-20,123.92956647771405,124.55466884396232,122.4809111423571,122.85795593261719,275100
2026-01-21,123.34415338455338,124.64398030125511,122.93734287422093,124.0387191772461,421000
2026-01-22,124.07840219082979,125.42783600604635,123.09608874217598,123.5029067993164,369700
2026-01-23,123.37391303470616,125.29884225734148,122.90757114819523,125.0210189819336,429500
2026-01-26,125.43775721229031,126.00332820078921,124.12801347207618,125.36830139160156,315400
2026-01-27,123.9791728132312,125.3186897727715,123.205234391347,123.77080535888672,303100
2026-01-28,123.23499911768216,124.09824219611878,122.29238336925172,122.73888397216797,347800
2026-01-29,123.32430960117436,124.30661551602421,121.63751348474041,122.88772583007812,386000
2026-01-30,121.9550286222896,124.03871071803064,121.70697104969861,123.97917175292969,512700
2026-02-02,123.23499750184895,124.93171793896286,123.23499750184895,123.860107421875,489100
2026-02-03,122.94725978548665,126.93602225021577,122.72896790883826,123.66165924072266,658700
2026-02-04,125.21552867481128,129.90700134775133,124.20949930267037,128.7216796875,589400
2026-02-05,127.16782066467043,128.5722782146923,121.48028130551128,123.49234008789062,2144200
2026-02-06,127.02836268310486,135.45509216979158,127.02836268310486,133.7816925048828,1045700
2026-02-09,133.05457384055362,139.02101804829903,132.72587004959905,137.9253387451172,1043400
2026-02-10,137.26793457923543,140.37565748193367,137.26793457923543,139.61865234375,622100
2026-02-11,138.48313331396238,139.99715874839507,138.05483198642824,139.4592742919922,584300
2026-02-12,139.60869173387061,141.44145054391814,138.84171623230802,139.95730590820312,572700
2026-02-13,139.9573151020267,142.3677944950846,139.85771755943315,142.01918029785156,471900
2026-02-17,138.71222079286514,143.055071512211,138.71222079286514,141.0928192138672,614700
2026-02-18,140.9135352437976,142.54708376856578,140.2860084572567,141.1625518798828,582000
2026-02-19,141.0928230678908,142.7562676088946,140.4752666602554,142.59689331054688,525500
2026-02-20,142.55704525117903,144.56910401516237,141.44145553591065,144.47946166992188,664500
2026-02-23,142.9255958993581,145.6647789342487,142.5670113304762,145.14682006835938,513500
2026-02-24,145.49544486452967,146.33213709933392,143.28417595914058,143.57302856445312,429800
2026-02-25,141.8498473766502,143.0949306198296,139.87762457633954,142.1187744140625,348900
2026-02-26,142.95547535989397,143.35389589996325,140.44538340090327,141.23226928710938,331300
2026-02-27,140.97329664666827,143.44353741820976,140.44538259466083,143.1447296142578,344600
2026-03-02,142.43751420451355,142.78614357053576,141.06293752550724,142.1088104248047,335000
2026-03-03,140.08679425249235,140.76412738697488,136.38142559574294,139.2102508544922,347300
2026-03-04,138.79191754238275,138.9612470419286,135.47501391314069,136.50096130371094,389000
2026-03-05,135.46505150535157,135.80371048641027,133.88130933030985,134.20004272460938,452300
2026-03-06,133.47291651624107,133.47291651624107,130.48471689274314,131.5604705810547,398500
2026-03-09,130.45484354440993,133.45299853256722,127.02837201579013,133.22390747070312,545700
2026-03-10,132.82547764917305,133.60240832546756,130.88313575966777,131.6102752685547,503100
2026-03-11,131.2815812945587,132.75575561111177,129.5284943463408,131.50071716308594,563800
2026-03-12,130.7536581494707,132.26766833775483,128.13399830193273,128.35313415527344,620600
2026-03-13,129.6380511924889,129.6380511924889,126.55025410703881,128.14395141601562,660600
2026-03-16,128.97069022910543,130.8931065380538,125.50438295551326,128.54238891601562,370700
2026-03-17,129.45876833048925,130.50464122844355,127.73557748644285,128.99061584472656,276700
2026-03-18,123.89075860801685,126.08210964583039,120.94240244020646,123.73139190673828,910500
2026-03-19,122.52615308632394,124.32903117833895,120.97228404186016,123.48237609863281,518500
2026-03-20,123.77123411184346,123.77123411184346,119.83676660084556,120.58381652832031,1481500
2026-03-23,123.02418368013113,125.84304628604973,122.50622481021608,123.65170288085938,455200
2026-03-24,122.67556308818467,124.72745780194329,122.38670286935901,123.66166687011719,405000
2026-03-25,124.94659356774676,126.07214606142944,123.22339504970952,125.3250961303711,337200
2026-03-26,124.72746089618293,126.83911722505529,123.6317891558115,124.19954681396484,442100
2026-03-27,123.45249678230496,123.72143142045898,121.28107129127055,121.51016235351562,381400
2026-03-30,122.07791483255923,123.45249154525831,120.62365857080745,122.87477111816406,562000
2026-03-31,123.90072145898677,126.46061226934556,123.1038651540704,125.52430725097656,557800
2026-04-01,126.83910993884153,128.13399948450484,125.83308820196113,126.25143432617188,380200
2026-04-02,124.64777023751822,126.5900970135599,123.76127159620845,125.51435089111328,297500
2026-04-06,124.0999305830527,125.6936431780852,124.0999305830527,125.51435089111328,461100
2026-04-07,124.82706080661809,126.6697824199569,124.30910953992999,125.11592102050781,376900
2026-04-08,130.86323514521675,132.1481543754263,127.64592907491694,131.50071716308594,645200
2026-04-09,130.70386349661462,131.91906599267529,126.83912013545304,130.88314819335938,424100
2026-04-10,131.7298075164679,132.178034445579,130.3353203595067,130.98275756835938,407400
2026-04-13,130.28551770076956,131.89914077103793,127.07818194963497,131.59036254882812,396300
2026-04-14,130.71381054193466,132.197955189354,130.45483870763653,130.4946746826172,315500
2026-04-15,130.29547082253353,130.51460669263554,128.0941721257409,129.14002990722656,407100
2026-04-16,126.40084558822308,129.81735412824597,126.40084558822308,127.78536987304688,393800
2026-04-17,129.14002424182965,131.7796097617975,129.14002424182965,130.11618041992188,401100
2026-04-20,130.05641512792803,131.47082778766443,129.1499909308814,130.405029296875,403600
2026-04-21,130.18589466096142,131.72980084865796,126.1916732788086,126.1916732788086,310200
2026-04-22,126.77935427393615,126.77935427393615,122.47634691200882,124.06009674072266,458900
2026-04-23,124.88682675562279,126.93872910578784,123.95052932532681,124.44856262207031,440800
2026-04-24,123.9206456254592,123.9206456254592,122.08787918491913,123.5919418334961,440900
2026-04-27,123.55209914216728,125.73348737793874,123.05406585359005,124.23938751220703,359700
2026-04-28,125.62392082821759,126.15183490401432,123.23335949687649,125.2752914428711,354300
2026-04-29,124.64776713863216,125.4047798425139,122.30701227202618,122.41658020019531,448400
2026-04-30,122.94449532386469,125.58407321741664,121.40058912214994,123.19351196289062,764800
2026-05-01,126.70962950793603,127.97463072857443,117.4362520229959,118.55184173583984,989400
2026-05-04,118.21317963909578,121.27110367417347,116.9979772200526,120.12562561035156,739600
2026-05-05,120.42445055667139,123.22339520339091,120.34476340674007,121.55000305175781,628600
2026-05-06,123.18000030517578,126.38999938964844,121.66999816894531,122.62999725341797,917000
2026-05-07,122.94000244140625,126.47000122070312,122.56999969482422,125.11000061035156,749700
2026-05-08,125.2300033569336,125.86000061035156,120.38999938964844,120.98999786376953,794900
2026-05-11,121.22000122070312,121.22000122070312,119.44000244140625,119.95999908447266,706100
2026-05-12,120.44999694824219,120.86000061035156,117.13999938964844,118.05000305175781,696600
2026-05-13,118.0,118.75,116.43000030517578,117.87999725341797,679500
2026-05-14,118.7300033569336,120.16000366210938,117.04000091552734,117.98999786376953,531000
2026-05-15,117.91000366210938,117.91999816894531,114.47000122070312,114.66999816894531,447000
2026-05-18,115.5999984741211,117.31999969482422,115.16999816894531,115.80999755859375,433100
2026-05-19,115.88999938964844,116.04000091552734,112.44999694824219,113.61000061035156,575800
2026-05-20,114.06999969482422,115.44999694824219,111.55000305175781,115.26000213623047,562600
2026-05-21,116.5,116.5,112.7699966430664,115.51000213623047,345600
2026-05-22,115.80000305175781,116.80000305175781,114.70999908447266,116.2300033569336,405800
2026-05-26,116.19999694824219,116.97000122070312,115.37000274658203,116.37999725341797,344500
2026-05-27,116.94000244140625,118.11000061035156,114.7300033569336,115.30000305175781,464000
2026-05-28,114.80999755859375,116.33999633789062,113.3499984741211,115.98999786376953,510100
2026-05-29,115.05999755859375,117.26000213623047,113.75,115.8499984741211,559600
2026-06-01,114.69000244140625,115.12999725341797,112.02999877929688,112.37999725341797,706800
2026-06-02,111.94999694824219,113.05000305175781,111.23999786376953,112.18000030517578,452400
2026-06-03,111.69000244140625,114.0199966430664,111.69000244140625,112.52999877929688,372600
2026-06-04,114.94999694824219,115.76000213623047,111.54000091552734,112.55000305175781,337600
2026-06-05,113.08999633789062,114.58999633789062,111.9800033569336,113.36000061035156,466300
2026-06-08,112.26000213623047,112.63999938964844,110.94999694824219,111.94000244140625,422200
2026-06-09,113.27999877929688,116.1500015258789,112.66999816894531,115.9000015258789,444400
2026-06-10,116.1500015258789,116.55000305175781,113.37000274658203,114.66999816894531,496800
2026-06-11,115.11000061035156,117.01000213623047,114.26000213623047,116.58000183105469,395200
2026-06-12,117.9000015258789,118.47000122070312,116.37999725341797,117.72000122070312,342600
2026-06-15,118.69999694824219,120.73999786376953,117.55999755859375,118.08000183105469,576100
2026-06-16,118.5,121.05000305175781,113.7699966430664,120.6500015258789,474700
2026-06-17,121.62000274658203,122.3499984741211,119.45999908447266,119.98999786376953,680500
2026-06-18,120.45999908447266,122.55000305175781,119.11000061035156,120.31999969482422,750600
2026-06-22,119.55999755859375,121.01000213623047,118.87999725341797,120.0,468400
2026-06-23,120.36000061035156,122.58000183105469,119.08000183105469,120.61000061035156,514100
2026-06-24,121.9800033569336,125.05000305175781,121.7699966430664,124.27999877929688,404900
2026-06-25,125.7300033569336,128.13999938964844,124.9000015258789,126.43000030517578,363500
2026-06-26,125.94000244140625,127.12000274658203,124.76000213623047,125.9800033569336,727400
2026-06-29,125.61000061035156,126.05000305175781,123.91999816894531,125.29000091552734,446600
2026-06-30,124.5999984741211,126.30999755859375,123.94000244140625,125.19999694824219,329300
2026-07-01,125.12000274658203,126.83999633789062,124.0999984741211,125.25,405600
2026-07-02,126.2699966430664,128.22999572753906,125.41000366210938,126.9800033569336,468400
2026-07-06,126.43000030517578,127.05000305175781,124.18000030517578,126.01000213623047,431400
2026-07-07,126.62999725341797,128.72000122070312,126.16000366210938,127.69000244140625,387600
2026-07-08,126.44999694824219,126.70999908447266,123.04000091552734,123.41500091552734,83425
