Date,Open,High,Low,Close,Volume
2023-08-21,118.45656631277183,119.71663785760668,118.36999253455805,119.06255340576172,358800.0
2023-08-22,119.14911831718098,120.91898944421266,118.08142160996854,118.26417541503906,429600.0
2023-08-23,118.36999112470143,118.85093535301714,117.64857478222787,118.68741607666016,305000.0
2023-08-24,118.78358853483805,120.67850973057145,117.91788756488046,120.34185028076172,278400.0
2023-08-25,120.78433122188993,122.81391641913827,120.21682056433897,122.67925262451172,493000.0
2023-08-28,122.76580652372049,124.64149319495958,122.76580652372049,124.47797393798828,331900.0
2023-08-29,124.853123798666,126.93080637409227,124.46835961215024,126.796142578125,472400.0
2023-08-30,127.3251694261685,128.18124955955412,126.68070592595714,127.82535552978516,298900.0
2023-08-31,128.2004954501464,128.63334233072922,127.20013788886044,127.5079345703125,305800.0
2023-09-01,128.02734015187872,128.69103075802838,127.46944316985002,127.49829864501953,252000.0
2023-09-05,126.66146169919045,126.95003116428316,122.50611130451453,122.7081069946289,325300.0
2023-09-06,122.91971130586049,123.13132057527952,121.390305035936,121.5923080444336,291100.0
2023-09-07,121.47688528995286,122.32334442871263,120.37071217704028,120.58232879638672,328600.0
2023-09-08,120.72661517649743,121.84240190476012,120.35147928747043,120.53423309326172,238800.0
2023-09-11,122.15021460292593,123.05439211199419,121.5923248683561,122.1694564819336,333500.0
2023-09-12,121.30375701204977,122.43878571398,120.6400516113284,121.70774841308594,258000.0
2023-09-13,120.98633519332367,121.76546253535643,120.34187165513295,120.59196472167969,279300.0
2023-09-14,121.20754648403003,122.44838326906701,121.20754648403003,121.92896270751953,217900.0
2023-09-15,121.66927042883084,122.35221036140925,120.39957794288019,121.130615234375,589200.0
2023-09-18,121.5442225254737,121.5442225254737,120.15910083878411,120.8516616821289,175100.0
2023-09-19,120.89975538209652,120.89975538209652,119.33187259288644,120.53423309326172,218600.0
2023-09-20,121.0440416397049,121.29413469692169,119.81282557129398,119.88015747070312,206200.0
2023-09-21,119.59158924649155,119.61082378593244,117.53314861088099,117.56200408935547,335700.0
2023-09-22,117.66781134829976,118.21608745028,117.45619472321509,118.00447082519531,341200.0
2023-09-25,117.34076318501396,119.3992037620622,116.84058444889169,119.31263732910156,258800.0
2023-09-26,118.82207240268929,119.4857777443957,118.53351028701881,118.889404296875,547000.0
2023-09-27,119.3126479723948,119.70701843321653,118.1872402117581,118.81246185302734,362400.0
2023-09-28,119.13949993050126,120.85166013877925,118.5623683479597,120.68814086914062,219300.0
2023-09-29,121.66925605429941,121.99630191131372,120.03404878510511,120.27452087402344,330900.0
2023-10-02,119.78395548707734,120.69775382607703,119.26453489555266,120.28414154052734,244100.0
2023-10-03,119.29341418642701,120.53425129078342,117.82172588596136,118.18724822998047,236300.0
2023-10-04,118.84132265546667,119.90901943753225,117.66781755527735,119.49540710449219,208200.0
2023-10-05,119.2356870928497,120.16872002997181,118.11990034706665,119.03369140625,466700.0
2023-10-06,118.89901776888921,121.86163560426291,118.68740116084457,121.5923080444336,491700.0
2023-10-09,121.02480176411956,122.3714470315645,120.89975891033677,122.10211944580078,275700.0
2023-10-10,122.3906880798059,123.70847793865926,121.68851359938441,121.71736907958984,322000.0
2023-10-11,122.66962432861328,122.83314359247812,121.82316519334888,122.66962432861328,212900.0
2023-10-12,122.37144727599267,122.54458748699037,120.29376474402021,120.64004516601562,189300.0
2023-10-13,121.19793811935457,121.842401584592,120.6208065484162,121.16908264160156,324900.0
2023-10-16,122.50611887985671,122.57345078072507,121.36146922646793,121.88088989257812,275200.0
2023-10-17,121.2075666764976,123.44876120681954,121.2075666764976,122.62154388427734,314400.0
2023-10-18,122.03479307787752,122.8042994522595,121.46727506334268,121.9482192993164,287300.0
2023-10-19,121.2748918959895,122.61191619220571,120.61118654800225,120.938232421875,443900.0
2023-10-20,121.13060925368268,121.65965082113568,117.28305556639171,117.56200408935547,446500.0
2023-10-23,117.08107007558768,118.46619187200963,116.59050488291709,116.86945343017578,379000.0
2023-10-24,117.47542865086069,119.05292505320921,117.08105821958665,118.63931274414062,312100.0
2023-10-25,118.15677276144453,119.4596516517281,117.63561973271062,118.09886932373047,431300.0
2023-10-26,117.02760662773419,121.01345262337937,117.02760662773419,119.12186431884766,576000.0
2023-10-27,119.16047518784606,119.51755620789429,116.15902425320523,116.94075012207031,364000.0
2023-10-30,117.66456388692826,118.05060396077593,116.63191092316939,117.90583801269531,283100.0
2023-10-31,118.23397067850544,118.60070468662809,117.57770478395322,118.0023422241211,422900.0
2023-11-01,117.847941489138,119.12186865336518,117.36539320930797,118.63932037353516,360500.0
2023-11-02,119.40174500651636,119.9518497393298,118.68757562918539,119.26663208007812,384300.0
2023-11-03,120.08696643881918,121.57321603943892,120.08696643881918,120.974853515625,278000.0
2023-11-06,120.89762906096666,121.34157990752995,120.39578214669304,120.82042694091797,173500.0
2023-11-07,120.27033814314946,120.62741916445184,119.8360402653971,120.2027816772461,205000.0
2023-11-08,120.52125543592591,121.10996492498091,120.06766623895945,120.75288391113281,175800.0
2023-11-09,121.30299893753235,121.30299893753235,119.7395397313075,120.04837036132812,118600.0
2023-11-10,119.90359356052024,121.3994961613825,119.5658112399359,121.33193969726562,195600.0
2023-11-13,121.01345529818798,121.1003178161299,120.02906006116073,120.1834716796875,183100.0
2023-11-14,121.55391115797988,123.39724915782807,120.936249936579,123.3875961303711,267400.0
2023-11-15,123.3586407628021,124.30443862184565,122.90504420607215,123.25247955322266,388600.0
2023-11-16,123.19458405532637,124.13072158442283,122.41285079230998,123.09807586669922,217000.0
2023-11-17,124.07281379686883,124.57466814111162,123.15597499237893,123.46480560302734,162700.0
2023-11-20,123.00155853990697,123.19458227747852,122.01716324915157,122.8760986328125,213900.0
2023-11-21,123.0112053695368,123.82189030028484,122.76027820488832,123.44550323486328,160600.0
2023-11-22,123.96665215202738,124.69047458350228,122.91470041923974,124.08247375488281,174800.0
2023-11-24,124.46849858209583,124.46849858209583,123.62886932734556,124.04385375976562,65900.0
2023-11-27,123.3586396115106,123.82188919108859,122.42249478837549,122.5672607421875,367500.0
2023-11-28,122.56725255670662,122.57690558314336,121.10995481503318,121.22576904296875,218000.0
2023-11-29,121.25474400150301,121.98821952615201,120.55987322689904,120.99417114257812,331800.0
2023-11-30,121.07137144789151,122.69273410973697,120.45371018272209,122.46111297607422,301000.0
2023-12-01,122.0075133766965,124.05351350614691,122.0075133766965,123.6288833618164,218300.0
2023-12-04,123.00155352374544,124.38164926101614,122.46110180679085,123.93769836425781,192000.0
2023-12-05,123.7736188019192,124.19826359298767,121.48633758152975,121.59249877929688,178000.0
2023-12-06,121.9785577252861,122.85679915866584,121.48635640148973,121.95925903320312,179500.0
2023-12-07,121.83379146528237,122.6734281493362,121.59251731777178,122.07506561279297,254000.0
2023-12-08,121.94960678177719,123.04981631507553,121.23543736051924,122.8760986328125,265800.0
2023-12-11,122.81819302140134,123.22353181848027,121.93029857047753,123.11737060546875,338000.0
2023-12-12,123.19456695353703,123.62886478672449,122.25842219129277,123.03050231933594,210300.0
2023-12-13,122.74098611390058,124.48781597010334,122.74098611390058,124.10176849365234,425000.0
2023-12-14,124.57467068526118,125.47220345317041,122.45145375097674,122.95330810546875,412900.0
2023-12-15,122.72167704235878,124.09211233389199,121.57320982713335,121.5828628540039,713000.0
2023-12-18,122.28739523266056,122.76994355606138,121.48636324867049,122.61553192138672,240500.0
2023-12-19,123.25248124676398,123.65782739941075,121.63111872548421,121.82414245605469,659100.0
2023-12-20,121.62146243272905,122.50935684330899,121.08101072784736,121.18717193603516,346400.0
2023-12-21,121.83379611512954,121.83379611512954,120.49231239282044,121.51531982421875,421900.0
2023-12-22,121.98820682835046,122.60586803857178,121.71798096926643,121.86273956298828,312200.0
2023-12-26,121.73726500519032,122.44178864993196,121.20645901510406,121.4380874633789,274700.0
2023-12-27,121.7179801620288,122.05576248364365,120.66602108831127,120.90729522705078,283100.0
2023-12-28,120.61774784931066,121.40912658006928,120.05799018623478,120.83006286621094,343600.0
2023-12-29,120.82043808829643,120.98450273280184,119.24732601714967,119.30523681640625,313500.0
2024-01-02,118.3304992303417,119.7684911575443,118.02166860108136,118.59107208251953,313100.0
2024-01-03,120.78184292338378,122.81819737149002,118.85164969204916,120.98451232910156,531700.0
2024-01-04,120.81079207973853,121.52496149850643,119.79743770955358,119.8843002319336,353300.0
2024-01-05,119.45965144487354,120.02906224611816,118.69722427618132,119.864990234375,423000.0
2024-01-08,119.73953974409099,120.7914989097474,118.0988784025131,120.009765625,352400.0
2024-01-09,119.39209643843853,120.28963654792885,118.6779270344352,120.27998352050781,250300.0
2024-01-10,120.11590329259948,121.04239500109803,119.89393523241942,120.82042694091797,279600.0
2024-01-11,121.00380927134914,122.53831669687723,120.57917177350777,122.41284942626953,323100.0
2024-01-12,123.4261986038641,123.50340809589281,121.52495720049569,122.01715850830078,231700.0
2024-01-16,121.48634817990717,122.39354127156845,121.12926717726768,122.3838882446289,257500.0
2024-01-17,121.54425926799404,122.82783205612957,121.4960014962835,122.26808166503906,336900.0
2024-01-18,122.87610796985773,125.47221301031782,121.9013582695851,124.63258361816406,444200.0
2024-01-19,125.18270536903452,126.8716246740737,124.05352921745988,126.23465728759766,418000.0
2024-01-22,126.33115191882085,127.20939344857626,126.00302257568376,126.61103820800781,266200.0
2024-01-23,127.1997241248171,127.24798189599859,125.78103106406539,127.22867584228516,217800.0
2024-01-24,127.50854252440655,127.6726071592471,125.98368831528413,126.21531677246094,294400.0
2024-01-25,127.42168888189254,127.75947854516052,125.82928555780933,126.66891479492188,332300.0
2024-01-26,127.08390439522177,127.96214577452949,126.81367854408161,127.10321044921875,219900.0
2024-01-29,126.47590503677381,127.9621472350077,125.93545332832512,127.63401794433594,187800.0
2024-01-30,127.42169552655902,128.44469550700896,127.03566279943983,127.63401794433594,228400.0
2024-01-31,128.14711126677335,128.53435928082044,125.03952535355248,125.73655700683594,537500.0
2024-02-01,126.29804406272626,126.92730171682662,125.47515503321043,126.33676147460938,298800.0
2024-02-02,125.81401369441663,126.5400871431397,124.58452518508494,125.94954681396484,344800.0
2024-02-05,125.01048126027132,127.25646061172087,123.9649337999065,126.48197937011719,319500.0
2024-02-06,126.31741327577761,127.20806159525097,125.17506481341027,126.94668579101562,369700.0
2024-02-07,127.21774119888832,128.19551470320488,125.24281332521821,127.59529876708984,393000.0
2024-02-08,127.44039987265825,130.53831002584943,127.3435841792457,127.90508270263672,620700.0
2024-02-09,127.89540969408253,134.7689104528772,127.31454506556426,134.52688598632812,650900.0
2024-02-12,134.72049474500278,135.98870051220734,133.12312449577541,133.21994018554688,491300.0
2024-02-13,132.32933090043258,132.948913090031,130.67387665915922,131.59356689453125,275900.0
2024-02-14,131.91298811347036,133.0747171783735,130.85776515911542,132.79396057128906,335000.0
2024-02-15,132.7939713432345,133.4135533345092,130.27692596643098,130.73191833496094,471400.0
2024-02-16,131.05141105332157,133.59751331676136,130.73193696622823,133.11346435546875,453900.0
2024-02-20,132.76494422449613,135.6692378984507,132.58100326162543,135.2335968017578,373000.0
2024-02-21,134.6430432067918,135.6401827546635,134.5559179504535,135.53369140625,276300.0
2024-02-22,135.9887045298492,137.87649236016304,135.60147130332354,136.95680236816406,295700.0
2024-02-23,137.44085155268917,137.51830115254398,136.11456223867728,136.85031127929688,190300.0
2024-02-26,136.9858566979064,137.52798917361454,136.30819110327124,137.3924560546875,199200.0
2024-02-27,137.39243933350093,137.64413944601768,135.3400767046714,135.83380126953125,244600.0
2024-02-28,135.19485448974754,136.73414124839545,134.88507086916457,135.9306182861328,189600.0
2024-02-29,136.14357873591067,137.11167639650137,135.3690976530385,135.97900390625,250600.0
2024-03-01,135.41751376903366,136.2984714673089,135.1077154081465,135.81442260742188,151400.0
2024-03-04,136.20170952806765,137.58608257287685,136.0758520614475,137.4311981201172,260300.0
2024-03-05,137.73128791076408,138.64130227082694,137.21819722213309,137.9733123779297,190200.0
2024-03-06,138.37021994084103,139.05757592063267,137.93457885855102,138.50576782226562,184000.0
2024-03-07,139.89013059583016,140.5097125902881,139.25118250942043,140.03533935546875,250100.0
2024-03-08,140.09347537096215,140.44199125998105,138.40897944537002,138.525146484375,185200.0
2024-03-11,138.23468763130884,138.8058765983286,137.45053072424915,138.18629455566406,226700.0
2024-03-12,138.24439416826982,138.2928020215548,136.9664977471601,137.86683654785156,242200.0
2024-03-13,138.43800441506068,138.43800441506068,136.43403460324666,136.65670776367188,336800.0
2024-03-14,136.8503413578885,137.10204153373775,135.8822433049244,136.43405151367188,235200.0
2024-03-15,135.57242007632507,137.86682208776077,135.2820025310812,136.50180053710938,599500.0
2024-03-18,136.43402821831805,136.79223448171572,134.49783244298447,134.8173065185547,299700.0
2024-03-19,134.44943456936542,135.84349784138894,134.44943456936542,135.059326171875,253000.0
2024-03-20,135.17550421499809,135.6014696220955,134.70113096218498,135.50465393066406,220000.0
2024-03-21,135.8338212875163,137.08267591797204,134.85604767387457,136.63734436035156,255800.0
2024-03-22,137.4795668432542,137.90553224987627,136.5502012033519,137.07296752929688,276000.0
2024-03-25,136.69539997271303,139.45448448167053,136.66635822183974,138.39926147460938,316300.0
2024-03-26,138.27343080301986,139.7062116207552,138.07012373555634,138.63162231445312,314200.0
2024-03-27,139.0866217188061,140.5194024560872,139.0866217188061,140.0450439453125,218200.0
2024-03-28,140.19996040963187,140.71305117138155,139.0672727425207,139.29962158203125,247800.0
2024-04-01,139.2028031090346,139.2028031090346,137.5860812427115,137.7506561279297,204400.0
2024-04-02,137.31500593788894,137.31500593788894,135.91126690307195,136.14361572265625,202600.0
2024-04-03,136.18234355557956,136.68575865051397,135.40786220306578,136.38565063476562,258700.0
2024-04-04,137.3053243590496,138.1959726377349,136.47275958975655,137.22787475585938,403600.0
2024-04-05,136.86968595043953,138.20565100866335,136.45339617162944,137.20851135253906,288300.0
2024-04-08,137.1504324507475,137.83778848313548,135.91126827776824,136.02743530273438,312500.0
2024-04-09,135.94029261944223,136.59860681125565,134.91411130502746,135.83380126953125,242600.0
2024-04-10,134.5462509693493,135.74669776324401,134.0331602299272,134.95285034179688,200700.0
2024-04-11,134.8173099688125,135.57242515875745,134.03315302325444,134.69146728515625,265300.0
2024-04-12,133.76206933999157,134.5171844314302,131.62258150491544,132.82301330566406,299200.0
2024-04-15,134.18804610778258,135.3497605952717,133.4329309523146,133.79112243652344,319600.0
2024-04-16,133.39420463004214,134.94316719612974,132.97792961895718,134.16868591308594,281700.0
2024-04-17,134.44943883100882,135.03028869809586,133.93634813434798,133.9847412109375,565400.0
2024-04-18,133.9750570093757,134.99156267697953,133.81048215225894,134.67208862304688,246600.0
2024-04-19,134.62369389699214,135.4562586960129,134.34295200090463,134.89476013183594,276600.0
2024-04-22,135.0980663323081,136.6470141255359,134.80763400482732,135.843505859375,298800.0
2024-04-23,135.31104215956182,136.65669759538656,135.06901769432713,135.6789093017578,417200.0
2024-04-24,135.88280137491373,136.80518972389316,135.58181289617383,135.94105529785156,559200.0
2024-04-25,135.7759941871754,137.14502060339382,134.88273282197122,136.10610961914062,694400.0
2024-04-26,137.87326188150567,144.19406594832364,137.77616210897216,139.16461181640625,489500.0
2024-04-29,140.68896186966708,143.71829961506626,140.17436572617285,142.12596130371094,676700.0
2024-04-30,141.50452795897255,141.85406627729742,139.8733442016764,140.18405151367188,585100.0
2024-05-01,140.7763334778744,142.93181744453807,140.37824526435972,141.15499877929688,359600.0
2024-05-02,141.52395235638076,142.46576363326017,141.06761019890962,141.67930603027344,356500.0
2024-05-03,142.8347262098354,142.85414912308485,140.63069223929037,142.54344177246094,303300.0
2024-05-06,143.46583362092616,144.74747925029178,142.88327954740367,144.70863342285156,260200.0
2024-05-07,144.00955843651997,146.00968872335923,144.00955843651997,145.36886596679688,392900.0
2024-05-08,145.3688644787559,146.48543745181516,145.135833983662,146.4077606201172,223500.0
2024-05-09,146.6116974972741,147.32047837661355,144.31057824435283,144.74749755859375,299100.0
2024-05-10,144.62126017257594,144.6698100517693,143.78625262261644,144.1746368408203,186300.0
2024-05-13,144.21346995257653,145.13585840929454,142.59200470826642,143.57264709472656,167500.0
2024-05-14,143.99014505242278,143.99984910137368,143.18426452924012,143.6017608642578,137600.0
2024-05-15,143.66001677139636,144.02896319801914,142.50459798974526,142.99977111816406,211100.0
2024-05-16,143.0871700529018,143.60176615776547,142.17448569624776,143.25222778320312,235500.0
2024-05-17,143.55320979655946,143.86390229710423,142.85413315115838,143.37843322753906,169500.0
2024-05-20,143.30077614301211,144.09695263816212,142.7667571298435,143.86392211914062,163400.0
2024-05-21,143.64062450269293,144.35910941304445,142.81532096392596,144.271728515625,280400.0
2024-05-22,143.7668498771203,144.5047576961729,143.18428093579104,144.46591186523438,283300.0
2024-05-23,144.3396862943476,144.62125187296155,143.27164827475897,143.427001953125,171700.0
2024-05-24,144.1649355408977,144.5047699213138,143.077489228118,143.78627014160156,162300.0
2024-05-28,143.32989260159044,143.4852462695525,141.5822156907114,142.44635009765625,318400.0
2024-05-29,141.41714913451602,142.43663725250155,140.3102801303625,140.6306915283203,229700.0
2024-05-30,140.91228668269574,142.70851373087208,140.78605995699684,141.89292907714844,328100.0
2024-05-31,141.8443808876884,143.5338189608347,141.6793231449918,143.39788818359375,358900.0
2024-06-03,144.18434827896806,144.18434827896806,142.0288639073479,143.85423278808594,266200.0
2024-06-04,143.3590315880983,144.07753125118836,142.43664318212836,143.8833465576172,287900.0
2024-06-05,143.4270158524189,143.89306211733856,142.8056158940781,143.62120056152344,229200.0
2024-06-06,143.70858196047192,143.70858196047192,141.17443223714181,141.71817016601562,197600.0
2024-06-07,141.53367596430135,142.07739902580767,141.22296860610217,141.320068359375,179100.0
2024-06-10,140.62099421122554,141.57250958640344,139.80540960393014,141.35890197753906,125800.0
2024-06-11,140.6986800796317,141.50456068926422,140.15495697321543,141.2715301513672,147700.0
2024-06-12,141.99003776485912,142.05799574927036,139.883103202602,141.59194946289062,221300.0
2024-06-13,141.65020339677005,142.27160338372448,140.8054917248297,141.59194946289062,232400.0
2024-06-14,140.8734504649213,141.1550309006414,139.50442375003365,140.5433349609375,141500.0
2024-06-17,140.65981624752195,142.4172120684738,140.3685466316063,142.077392578125,303800.0
2024-06-18,142.22303735719075,143.39787921333664,142.2133333077604,142.42694091796875,219900.0
2024-06-20,142.39781323867697,143.24252481049206,141.43657899757036,141.572509765625,199900.0
2024-06-21,141.63076047927734,142.86385622851674,141.0870374193948,142.58229064941406,444100.0
2024-06-24,142.94153910100914,143.92218146002028,142.4075200677485,142.45606994628906,182900.0
2024-06-25,142.52403514640127,142.53375401180762,140.30059282386082,140.65013122558594,194500.0
2024-06-26,140.05785425717647,140.5821544372045,138.80535032884424,139.53355407714844,192400.0
2024-06-27,139.68887329101562,139.69859215477817,138.1353810691403,139.68887329101562,377300.0
2024-06-28,139.60150714084187,140.12582211775148,136.01874245488284,136.7178192138672,435100.0
2024-07-01,137.27127014880173,137.36835509564582,134.36815911737452,134.5137939453125,306400.0
2024-07-02,134.45551784033776,136.41681715340104,133.7564411508368,136.31971740722656,259400.0
2024-07-03,136.7858055226286,137.2906828198518,136.48481699130676,137.1159210205078,143300.0
2024-07-05,136.89257147209128,137.32949066493757,135.66917995371364,136.80517578125,207000.0
2024-07-08,137.53340696834337,138.35871046567937,137.38777214662196,137.39747619628906,249300.0
2024-07-09,136.76637614080624,137.1644644187289,135.6886339831031,135.97019958496094,238400.0
2024-07-10,136.65955303485114,137.51398340041877,136.48479126844396,137.18385314941406,142000.0
2024-07-11,137.09646742302462,139.13544351779265,136.6595482071003,137.96060180664062,244500.0
2024-07-12,139.24228498373407,141.26183871311542,139.24228498373407,140.3879852294922,263900.0
2024-07-15,140.55302268784044,141.45600300897715,138.98010738595784,139.2616729736328,319900.0
2024-07-16,139.66948303288666,141.07734063154754,139.66948303288666,140.3588409423828,178800.0
2024-07-17,140.14523913079555,141.5336886876332,140.14523913079555,140.65013122558594,242300.0
2024-07-18,140.40737409059614,142.97065035321154,140.39767004209162,142.02883911132812,434200.0
2024-07-19,142.32983440463798,142.32983440463798,140.45593069491323,141.69873046875,251200.0
2024-07-22,141.747306657231,143.27167228757753,141.02880688587183,142.9124298095703,235700.0
2024-07-23,143.572641002004,144.19404091845544,141.43657971516106,141.7958221435547,234500.0
2024-07-24,141.8249684790197,142.36869157146538,139.718019272778,139.9510498046875,250600.0
2024-07-25,139.11343221874438,140.30168787194964,137.54532532307127,137.8083038330078,558100.0
2024-07-26,139.40560564885226,147.35326223129871,138.64590329069,142.84375,562800.0
2024-07-29,142.76586110666832,144.48980830931347,141.39254698148082,143.95411682128906,390900.0
2024-07-30,143.5450338076538,144.05149220142636,141.62629393482098,141.9574432373047,411000.0
2024-07-31,142.6879050682789,144.97676136731175,141.62627166223308,143.15541076660156,280600.0
2024-08-01,143.05804117385702,145.64881403519908,141.64575972559882,143.20413208007812,335300.0
2024-08-02,142.76582743375832,143.17489678401833,140.00946539253493,141.89898681640625,213500.0
2024-08-05,139.69779019041522,139.69779019041522,135.85057640594786,137.01934814453125,448500.0
2024-08-06,137.6524820174173,142.28861765575468,137.43820540463662,141.15879821777344,476000.0
2024-08-07,142.2107126628991,143.42818679149585,139.73681177275824,139.86343383789062,353600.0
2024-08-08,140.70103177550166,142.35679332552462,140.70103177550166,141.77239990234375,268600.0
2024-08-09,141.62628524099554,141.62628524099554,139.73676366603377,140.2042694091797,263200.0
2024-08-12,140.22374527361563,140.42827252274284,139.05497355052955,139.56143188476562,221100.0
2024-08-13,139.77571975776996,141.5191504756012,139.37639966606926,140.61334228515625,212000.0
2024-08-14,140.37958921087778,141.0418877556547,139.75624328448924,140.1555633544922,115700.0
2024-08-15,141.2269842783919,143.5060920440662,141.2269842783919,143.18467712402344,277500.0
2024-08-16,142.3080938053694,143.01909442160505,141.82110423172318,142.9022216796875,250600.0
2024-08-19,142.51264091252753,143.8859402629572,142.12304032304087,143.14572143554688,191200.0
2024-08-20,143.15544136166255,144.45083532458932,143.15544136166255,144.25604248046875,387200.0
2024-08-21,144.3144860611105,145.67806576159592,143.62296920065572,145.44430541992188,267300.0
2024-08-22,145.6780688711514,146.48645848882754,144.80147871746917,145.1131591796875,200400.0
2024-08-23,145.7657034384913,146.6130604286141,145.5514268655365,146.52540588378906,221400.0
2024-08-26,146.75914391028522,148.69736740875544,146.23320180620857,146.252685546875,235500.0
2024-08-27,146.10657244845748,147.5967590072151,145.9409978154554,147.26560974121094,208300.0
2024-08-28,147.00264345528416,148.01558993867803,147.00264345528416,147.59677124023438,249000.0
2024-08-29,148.58049863148904,148.9311316640923,147.27537034525355,148.31752014160156,187100.0
2024-08-30,148.23961278387767,149.447352191514,147.6941868777649,149.203857421875,178500.0
2024-09-03,148.15194689459446,148.41492538696468,145.83387210929124,146.13580322265625,362400.0
2024-09-04,145.70725993860023,146.97342071092024,145.70725993860023,146.80784606933594,175800.0
2024-09-05,147.1487592794206,147.81105791158635,146.04815817755215,146.79812622070312,200600.0
2024-09-06,146.4669892113799,149.1356825686532,146.4669892113799,148.41494750976562,319100.0
2024-09-09,148.599998351621,149.07723859888472,147.49939721337483,147.95716857910156,241500.0
2024-09-10,147.91819898327566,148.81425795867298,147.49939511007815,147.56756591796875,158100.0
2024-09-11,146.86629136229539,146.95396076989897,144.76250795288001,146.9149932861328,178000.0
2024-09-12,146.96369468322857,148.05454643692235,146.06763576244578,148.005859375,200400.0
2024-09-13,148.22986559888577,149.02852064652984,147.9474033678148,148.31752014160156,138600.0
2024-09-16,149.0577507849576,149.18437282019818,148.11300475699895,149.00906372070312,182900.0
2024-09-17,149.9927649627968,151.5219191158579,147.9181849513857,149.04800415039062,259900.0
2024-09-18,149.75899280719582,151.44398703270204,148.73632683455978,149.0869598388672,214200.0
2024-09-19,150.98623601631084,154.677610065008,150.98623601631084,152.8173065185547,412400.0
2024-09-20,152.24264348688334,152.24264348688334,150.4602602695772,151.85305786132812,663300.0
2024-09-23,152.1063064527266,152.82705629994214,150.71352354488388,151.9017791748047,315800.0
2024-09-24,152.1160493204721,152.99263943106746,151.96995839957702,152.55435180664062,246200.0
2024-09-25,153.2069113857245,153.76207173006424,151.81411358113382,153.0510711669922,284100.0
2024-09-26,153.8302359516064,154.9210876071616,153.59647565609922,154.2587890625,371600.0
2024-09-27,154.55100141706893,157.3463316298126,154.1419319653425,155.72952270507812,354300.0
2024-09-30,155.14510798319304,156.24570900619995,154.7944749495995,156.02169799804688,289800.0
2024-10-01,156.3625791144633,156.3625791144633,154.91135994387946,155.8074188232422,192200.0
2024-10-02,155.70028846125726,155.94378321896212,153.84973424739667,154.61917114257812,186900.0
2024-10-03,153.87896779578838,156.28469743108852,152.56409002818182,154.8042449951172,367000.0
2024-10-04,155.77820432469008,157.26839101232096,155.18407653760102,156.40155029296875,350500.0
2024-10-07,155.24251230852914,155.486007058675,153.89841653196711,154.56072998046875,223300.0
2024-10-08,154.16140851662,154.88215839036292,153.0121203289736,154.541259765625,205900.0
2024-10-09,154.22958607287964,155.8853474593437,154.00556019446944,155.54444885253906,152600.0
2024-10-10,153.93739633476548,155.23279029262568,153.93739633476548,155.0769500732422,168500.0
2024-10-11,156.75218568056042,157.70668095780067,156.17754162622376,157.3463134765625,194400.0
2024-10-14,160.6968029731812,163.394714143239,159.20661626974442,162.8395538330078,469700.0
2024-10-15,162.96615916864047,165.2452662626044,162.1577548858949,164.29075622558594,397300.0
2024-10-16,164.3102858850682,164.79727547859937,161.60262493397434,161.71949768066406,330000.0
2024-10-17,162.63502251682706,163.94016577814568,162.18700046287847,163.52134704589844,238200.0
2024-10-18,164.69986730082573,164.69986730082573,163.414207789957,164.24209594726562,171500.0
2024-10-21,164.0862524476999,164.1057361900711,161.97271968352462,162.00193786621094,217900.0
2024-10-22,161.4078288401736,162.04090935440306,160.52150423085823,161.4954833984375,228500.0
2024-10-23,162.17724687078498,163.6089972685699,161.83636311905678,163.28758239746094,318100.0
2024-10-24,164.38138841449273,164.3911490539813,162.26215240803288,162.65280151367188,547300.0
2024-10-25,164.96734120598276,165.87558734575057,160.75819577884172,164.95758056640625,518900.0
2024-10-28,165.92441114185215,167.3990873642211,164.8110872205768,165.1431427001953,350000.0
2024-10-29,165.0747671080742,165.52400985615543,163.71729312603756,164.7524871826172,338100.0
2024-10-30,164.41067173516717,166.21737340703038,164.18604292971634,165.0747528076172,290300.0
2024-10-31,165.13335357792894,166.29551040666678,163.93213929101648,163.98097229003906,329900.0
2024-11-01,164.16654807832185,166.98892289403057,163.69776911458624,165.44589233398438,316300.0
2024-11-04,165.66072177477935,166.5787284860389,164.24463934900223,164.32276916503906,191800.0
2024-11-05,163.81495853194275,166.37364684373878,163.81495853194275,166.32481384277344,206200.0
2024-11-06,171.05154898002016,171.05154898002016,168.1119872286225,169.10812377929688,264100.0
2024-11-07,170.12378096512896,171.35430696476374,169.47922114643825,170.62185668945312,412300.0
2024-11-08,170.61208381104976,173.67860841546667,170.4070060757364,171.64727783203125,309200.0
2024-11-11,172.19417237187216,173.86415054303177,171.7839871315732,172.02813720703125,189100.0
2024-11-12,172.51646680557812,173.09267240733516,170.85624898942092,171.5886993408203,179800.0
2024-11-13,171.3933563232422,172.26253001280048,170.95388915917127,171.3933563232422,168400.0
2024-11-14,171.05155682058597,171.67658049046,169.8405818424337,170.02613830566406,198200.0
2024-11-15,168.92259010604147,169.6940979462343,162.28170370883174,162.59422302246094,620500.0
2024-11-18,162.4965219370304,163.8930681030405,160.4847277204419,162.7895050048828,384400.0
2024-11-19,162.52583437609178,163.74658485803732,162.31098109913023,162.99459838867188,287600.0
2024-11-20,163.0922544076903,164.98686142400987,161.77383800717232,164.78176879882812,221800.0
2024-11-21,164.74271987680694,166.24667789967594,163.81495249958823,165.90487670898438,205100.0
2024-11-22,166.1978542572136,168.04364337816776,166.1978542572136,167.49673461914062,241600.0
2024-11-25,168.02409483029683,169.94799873062775,167.7213511031337,168.46356201171875,270100.0
2024-11-26,168.81513216055757,168.81513216055757,167.1549145944536,168.01431274414062,140300.0
2024-11-27,168.62958510670097,169.81127811822287,167.50650063518984,167.71157836914062,167200.0
2024-11-29,168.55145899910121,169.43040829774364,168.06315880043525,168.91281127929688,117300.0
2024-12-02,168.93233680546206,169.05929962886407,166.84241249869427,168.7174835205078,170900.0
2024-12-03,169.39133917889114,169.39133917889114,167.0865616010066,168.36590576171875,160100.0
2024-12-04,167.86783536473908,168.84443572520686,167.02795845866723,168.55145263671875,173400.0
2024-12-05,167.98503908384095,168.40498502885572,166.5396745813458,167.09634399414062,245000.0
2024-12-06,167.58463897320985,168.61005749857284,166.85218865409922,167.14515686035156,209200.0
2024-12-09,167.54556559711838,169.4108759749143,166.24668525088177,166.7935791015625,301700.0
2024-12-10,166.7252406375411,167.36002500978458,164.2544425337756,166.91079711914062,287000.0
2024-12-11,167.85808411107303,170.02613822467129,167.73112128855698,168.27801513671875,418600.0
2024-12-12,167.65296930179122,168.56121531663356,166.78379564336024,167.62367248535156,178300.0
2024-12-13,166.91076951474722,166.99865996989303,165.8462787089003,166.21737670898438,153200.0
2024-12-16,166.158796503823,166.9303042864774,163.66846242787886,163.70753479003906,236100.0
2024-12-17,162.99458751218418,163.00436305250057,159.02959259568405,159.27374267578125,511900.0
2024-12-18,159.85971564038562,160.57262973216018,154.21496674015316,154.50794982910156,468600.0
2024-12-19,154.80093483209816,157.78934478191135,154.5274878931726,155.1525115966797,404700.0
2024-12-20,155.00604085611798,156.0412350572968,153.78529016571997,154.47866821289062,730200.0
2024-12-23,153.49228296319632,155.1817974814259,153.28720522432621,154.81069946289062,194900.0
2024-12-24,155.06460748481138,155.6896311333145,154.2247305600973,155.62127685546875,100500.0
2024-12-26,154.7130496409685,155.89474280440862,154.7130496409685,155.13299560546875,164500.0
2024-12-27,154.12706058841098,155.8458716858728,153.9219679765111,154.44932556152344,145000.0
2024-12-30,153.32626257404377,153.80480213396478,151.3730617769222,153.0625762939453,221700.0
2024-12-31,153.59970058644706,154.54700411025723,152.52543424962974,153.42391967773438,317100.0
2025-01-02,153.96104492700826,154.4102876614351,149.8593262852289,150.55271911621094,239400.0
2025-01-03,150.43550041969115,152.07619663730705,149.29287988147502,151.86134338378906,250700.0
2025-01-06,150.39646609155173,151.02148977014832,147.89637137716537,149.34173583984375,369000.0
2025-01-07,152.27153842764793,152.40826189282907,149.0292327240345,149.8397979736328,361200.0
2025-01-08,149.3124422881475,150.6503801368408,148.5311589473614,150.54295349121094,228600.0
2025-01-10,149.14643028639964,150.68946087220502,149.00970681179618,149.85934448242188,350800.0
2025-01-13,149.3514738966303,151.08006056736804,149.3514738966303,150.2890167236328,349300.0
2025-01-14,151.18750459843608,151.81252825447513,149.8886242863141,150.9921875,196900.0
2025-01-15,152.46686153360938,153.2481448947014,150.56249358589434,151.9199676513672,206100.0
2025-01-16,152.24223989964935,153.49228725350105,151.67580986403843,152.7500762939453,346300.0
2025-01-17,153.29695885699005,154.2540230320317,152.03713605455528,152.4375457763672,231900.0
2025-01-21,153.0528143054371,156.50997312910235,153.0528143054371,156.0900421142578,270900.0
2025-01-22,155.6115107453754,156.98852094407073,154.6349103040437,155.34783935546875,280000.0
2025-01-23,154.7521187567618,156.07052046490324,154.0391896764672,155.8849639892578,149800.0
2025-01-24,155.91424200320077,156.71506145375167,153.54111027377883,154.59584045410156,329600.0
2025-01-27,154.54699783386062,155.20131824817142,152.98443138953712,154.75209045410156,317000.0
2025-01-28,153.88292658532947,156.59787440646915,153.88292658532947,154.71302795410156,204300.0
2025-01-29,155.0646061385479,155.10367849846844,152.95514575501196,153.43368530273438,265800.0
2025-01-30,154.1270810917156,154.96694312356598,152.9160912404324,154.42982482910156,274200.0
2025-01-31,154.20518277543422,155.66032259995123,153.09185901964062,153.4727325439453,834100.0
2025-02-03,150.9629044447037,153.08212570452554,150.53319784792123,152.33013916015625,364600.0
2025-02-04,152.4375754807049,154.75212890535818,152.4375754807049,154.00990295410156,302400.0
2025-02-05,155.01864663986422,156.3702165851502,154.52894911700784,155.05783081054688,262600.0
2025-02-06,156.54649741836073,156.54649741836073,152.16860045521503,153.22634887695312,446600.0
2025-02-07,154.37224962460155,154.64647905482116,139.11327229734582,140.2297821044922,1221500.0
2025-02-10,141.2875312819042,141.62053697254157,137.99676315893876,140.32772827148438,621900.0
2025-02-11,139.33854663703144,140.1220657147679,137.3699528993658,139.35812377929688,377300.0
2025-02-12,138.06534960690843,140.53342982167348,137.0467701779134,138.78030395507812,423500.0
2025-02-13,139.80863972660936,140.81741540614397,138.54522672072014,139.82823181152344,665900.0
2025-02-14,140.72931474861383,142.3159303715822,139.77930010058338,141.806640625,512800.0
2025-02-18,141.806629148029,144.25511722944964,140.93496798881864,143.87315368652344,489600.0
2025-02-19,143.12880426353559,144.45099367199094,142.6097260381441,144.01025390625,331000.0
2025-02-20,143.94171731007287,144.38244217212826,142.91334933568692,143.65768432617188,283100.0
2025-02-21,144.0004768600077,144.3530597341893,142.20818182828341,143.32469177246094,451900.0
2025-02-24,143.1679580885088,144.25508716788633,141.3854669077713,142.60971069335938,353300.0
2025-02-25,142.87414821729212,145.27366299244076,142.71744142972454,144.66644287109375,336700.0
2025-02-26,143.62828832707837,146.10615678438293,143.59890766903789,143.61849975585938,735600.0
2025-02-27,143.21694635144803,144.14736874046284,142.3648773665291,142.6293182373047,262800.0
2025-02-28,143.14838730085012,143.9221028321513,141.64991403633834,143.72622680664062,348700.0
2025-03-03,143.94167865165974,145.7731424470105,142.6880542967998,143.5695037841797,394100.0
2025-03-04,142.54115535917794,144.90150112160728,142.14940329945776,142.93292236328125,490100.0
2025-03-05,143.0406700510276,145.78297956351986,143.0406700510276,145.3814239501953,445100.0
2025-03-06,144.51952840338762,148.37834721716624,144.02983088781943,148.03555297851562,471700.0
2025-03-07,147.40875736971992,150.20003950079644,146.10616003817648,149.63198852539062,480200.0
2025-03-10,148.93662196596816,150.82684736023063,147.14432711634848,147.467529296875,391100.0
2025-03-11,147.24224245056683,147.45771054865955,144.23550753617076,144.8427276611328,304000.0
2025-03-12,145.18552675241813,145.18552675241813,142.56074026251753,143.02105712890625,299700.0
2025-03-13,143.39324790721705,144.16696350239528,140.79784178568258,141.77723693847656,238400.0
2025-03-14,142.237534136815,143.86333345171332,141.56174918397278,143.63807678222656,223600.0
2025-03-17,143.49118010431383,144.95048427871978,142.854579225438,144.7937774658203,225200.0
2025-03-18,144.35304428256728,144.49015899982857,142.7762175618708,143.28550720214844,219900.0
2025-03-19,143.32466483055046,144.42159742424096,142.47259593827573,143.95147705078125,279600.0
2025-03-20,143.1190209381293,144.38243413158088,140.76846356409283,142.2081756591797,332800.0
2025-03-21,141.03288741960213,142.46281077035695,139.4266801328764,141.83599853515625,601900.0
2025-03-24,142.74685366750688,145.12677688467917,141.9241652673277,144.94070434570312,463800.0
2025-03-25,145.43038233248038,146.15512513486658,142.9231183481365,144.1767578125,325200.0
2025-03-26,144.02005068183723,145.63604659931275,143.28550436582418,145.49893188476562,630400.0
2025-03-27,145.22471455574868,146.80154137661276,144.0004705937233,146.27267456054688,312700.0
2025-03-28,146.2138845778836,146.90926165859608,142.7566211490686,143.9025115966797,239800.0
2025-03-31,143.5597480313838,146.01802456611082,143.08964252694352,145.32266235351562,372500.0
2025-04-01,145.8123486528671,146.93864705079392,144.34325598893645,146.02781677246094,240000.0
2025-04-02,144.95046129125058,148.01597245076098,144.95046129125058,147.42832946777344,247600.0
2025-04-03,143.73602588355362,146.9582442746014,143.44221929600363,145.60667419433594,352900.0
2025-04-04,142.2277708498692,144.91131905351403,137.15449598879215,137.29161071777344,531600.0
2025-04-07,133.53071403995318,139.19161608543078,128.1538449204054,131.8755340576172,629900.0
2025-04-08,134.5493112573588,136.43953673434598,128.57499483049722,130.9059600830078,473800.0
2025-04-09,130.43581304578677,141.44421772943244,128.61415277452573,140.78802490234375,491800.0
2025-04-10,137.11532993446937,140.4158870228316,134.7354067381973,137.8596649169922,309000.0
2025-04-11,137.96737957378522,141.7282680233526,136.86067330008663,141.140625,203000.0
2025-04-14,142.79581425798335,143.38344237476502,140.82722046414764,142.7860107421875,249300.0
2025-04-15,143.0896488919898,143.52057023933776,140.807656215774,140.97415161132812,250700.0
2025-04-16,141.09166473999363,142.81540979066028,139.63237551205373,142.01229858398438,307700.0
2025-04-17,142.40405194984112,142.75663480933545,137.8107011490633,140.8664093017578,390600.0
2025-04-21,140.347331860725,141.08187824351555,138.19266546008294,139.6421661376953,291600.0
2025-04-22,141.52259151328374,143.79479531157602,140.631338388382,143.0112762451172,217800.0
2025-04-23,144.823151790697,146.24328667195422,144.1865509396658,144.99945068359375,537000.0
2025-04-24,144.88192409202932,148.86806971088194,142.4628317080614,148.33920288085938,424500.0
2025-04-25,147.74175781185858,149.84745131334506,144.52934305768525,145.98863220214844,220500.0
2025-04-28,146.71339348881767,147.91804531450325,145.22470870652703,146.61544799804688,235200.0
2025-04-29,146.67421273095528,148.84847116613122,145.939666366217,147.20309448242188,359900.0
2025-04-30,145.99844818091182,146.8994899625974,144.17677252930838,146.8603057861328,556200.0
2025-05-01,145.82883124627438,147.8721067076984,144.36514960993844,145.66183471679688,445300.0
2025-05-02,150.2886872456017,150.29850528114721,145.18049076089244,149.316162109375,431600.0
2025-05-05,148.7562082163406,150.51461075676426,148.21593150363898,148.80532836914062,267600.0
2025-05-06,147.59705042912566,149.355437978684,146.78170385931236,148.25521850585938,312000.0
2025-05-07,149.1982877610097,150.44585281383766,147.96052575449374,148.71693420410156,318400.0
2025-05-08,149.10982924733253,151.84075642869666,148.5695526182724,150.65211486816406,302500.0
2025-05-09,151.19240221089987,151.57551534960905,150.23952838063488,150.61282348632812,231600.0
2025-05-12,153.03923920333585,153.82511675438303,150.98614553061785,152.77401733398438,352500.0
2025-05-13,153.55003919391905,153.55003919391905,150.49495171985274,150.92718505859375,339400.0
2025-05-14,150.90754450151144,150.90754450151144,148.3043412429943,149.7876739501953,350100.0
2025-05-15,149.65998239804614,152.7347062134107,149.65998239804614,152.2140655517578,278100.0
2025-05-16,152.43998138798113,154.3751983205255,151.860402608422,154.2376708984375,278600.0
2025-05-19,153.5991717253283,155.5442069170815,153.5500515711728,155.28880310058594,185400.0
2025-05-20,157.4303150085624,157.4303150085624,155.12181749431372,155.73086547851562,388100.0
2025-05-21,154.09032526701444,154.86636965019244,153.07851316508325,153.68756103515625,319800.0
2025-05-22,153.5991755437167,154.4832783830283,152.81329802579143,153.88404846191406,278900.0
2025-05-23,152.3810559407016,153.4223372220158,151.53624028030902,153.18658447265625,260500.0
2025-05-27,154.25734853178614,155.64245601461047,153.92335544765425,155.36740112304688,352800.0
2025-05-28,155.36739421063615,156.03538034918074,154.4832763933447,154.6208038330078,364400.0
2025-05-29,155.0432217337395,155.86838638532782,154.05106054476073,155.53439331054688,232100.0
2025-05-30,155.44598590152702,155.97644460873903,153.77599055020596,155.6031494140625,335100.0
2025-06-02,154.75833131600515,156.2613301068848,152.51859016122646,154.13946533203125,349600.0
2025-06-03,153.4223415376803,154.66010346409962,153.24552697068694,153.5009307861328,397800.0
2025-06-04,153.72687442684654,153.7563435201819,147.63633532186296,147.7542266845703,831900.0
2025-06-05,148.90356481639972,150.6324832288513,146.41823804065308,149.79750061035156,482400.0
2025-06-06,151.6443086942385,151.75236704132885,149.52245886221365,150.60302734375,264700.0
2025-06-09,150.01363456854594,150.4753220758684,148.68746527135272,148.92323303222656,388400.0
2025-06-10,149.47334506320036,150.2985097546009,148.1962959040132,149.83680725097656,323500.0
2025-06-11,150.29849644880608,150.8780752886444,148.92322208489034,149.23756408691406,380800.0
2025-06-12,148.73658814675593,151.8899014382214,148.73658814675593,151.6246795654297,337200.0
2025-06-13,150.2985051515068,151.00579343372206,148.06858195648448,148.49099731445312,361200.0
2025-06-16,148.5695758002576,150.20025395390124,148.4516844355203,149.01162719726562,346200.0
2025-06-17,147.9998296074305,148.58922653181065,146.49684571567806,146.81118774414062,379700.0
2025-06-18,146.48700188455078,148.06857491409224,146.48700188455078,147.0567626953125,383200.0
2025-06-20,147.63634617447357,148.10788168123327,146.35931206442524,147.64617919921875,570500.0
2025-06-23,146.85047583401547,151.2218996436103,146.85047583401547,151.0745391845703,356500.0
2025-06-24,151.84077408220156,151.84077408220156,150.47530283808342,151.1531219482422,246600.0
2025-06-25,151.14331042765082,151.80147850793904,150.0725600428252,151.21206665039062,264700.0
2025-06-26,151.80147000378724,152.83293320202972,150.41636270870066,151.75234985351562,658200.0
2025-06-27,151.92917357890042,153.35356794604172,151.50675828997822,153.06869506835938,643100.0
2025-06-30,153.27499173184543,153.73669418509692,151.8800663373244,153.6679229736328,315500.0
2025-07-01,153.66791520781175,156.97842145950187,153.20622776725833,156.20236206054688,338300.0
2025-07-02,156.2122087454969,157.69554147577566,155.84873159459067,157.4892578125,293500.0
2025-07-03,157.76429959403765,158.51087491476963,156.99807321531225,158.19651794433594,235100.0
2025-07-07,158.1081326731942,159.50305819756994,157.71520139482857,158.1179656982422,313900.0
2025-07-08,158.05901225349746,159.7093565965001,157.02756390215916,157.22402954101562,342700.0
2025-07-09,157.10613360189868,157.18472285303153,155.30845881868973,156.90966796875,252800.0
2025-07-10,156.37920902223024,157.52854871323547,155.53439331054688,155.53439331054688,361600.0
2025-07-11,155.76030371292907,155.76030371292907,153.864388917444,155.11195373535156,292000.0
2025-07-14,154.3654022940558,156.13362296539574,153.92335087356255,154.77798461914062,276600.0
2025-07-15,154.95480896302266,155.21021277775083,151.34961151557988,151.43801879882812,254200.0
2025-07-16,151.2022489800424,152.8624112264187,150.83878682765217,152.2435302734375,261900.0
2025-07-17,152.00777788286257,153.6482890740105,151.78182817574609,153.27499389648438,397700.0
2025-07-18,154.08052265083427,154.43416676966828,152.18459265589,153.6188201904297,243100.0
2025-07-21,153.65810471165034,153.9036904847458,152.49894705753542,152.70523071289062,205900.0
2025-07-22,153.35357548550758,156.54619042612177,152.48910879729814,156.3595428466797,449900.0
2025-07-23,157.24368095923748,158.99225063096037,156.33009400189493,158.80560302734375,450500.0
2025-07-24,158.559320268112,161.82979531304568,157.40675735764995,159.406494140625,431900.0
2025-07-25,159.63305506440543,160.65753702914088,158.3819926877325,158.5888671875,296300.0
2025-07-28,158.79573614749467,159.56410142477418,155.80108366056007,156.33302307128906,308500.0
2025-07-29,156.67779828906407,157.21959813532774,154.8750906357904,156.45123291015625,388200.0
2025-07-30,156.4315385130725,156.55958937255576,152.60940298667225,154.45150756835938,580700.0
2025-07-31,153.456563501654,155.0031544025075,152.86550639902828,154.79627990722656,679700.0
2025-08-01,154.62883281758354,155.7616748420332,138.98567424542853,139.24180603027344,1012300.0
2025-08-04,140.98538123418317,140.98538123418317,135.03547356824112,137.05490112304688,839000.0
2025-08-05,137.26176707147744,138.9659752764255,135.63638251685612,138.12864685058594,540800.0
2025-08-06,138.21731427393004,138.6605996470306,135.4984842918658,136.4737091064453,515300.0
2025-08-07,137.71491162131494,139.37970798596095,136.83818640949156,138.39462280273438,564000.0
2025-08-08,138.59162361799454,139.9313399406848,138.48326365692378,138.65072631835938,428700.0
2025-08-11,139.222090228796,139.5077583171329,137.12385398637957,137.7838592529297,349500.0
2025-08-12,138.12862654943748,138.98564573069308,137.15338694127408,137.399658203125,286100.0
2025-08-13,137.6065636684466,139.33046288965815,137.1731237449772,139.3206024169922,729900.0
2025-08-14,138.09908585404855,138.09908585404855,134.405016641309,136.27667236328125,875800.0
2025-08-15,136.29638497225332,136.8775816161289,135.81368782683418,136.65101623535156,770500.0
2025-08-18,136.81848979115895,137.4883555774846,135.30146511966976,135.83340454101562,529500.0
2025-08-19,136.20773671589527,138.4241784468644,136.20773671589527,137.50804138183594,333100.0
2025-08-20,137.8232781418471,139.14328874260568,137.18296372359896,139.07432556152344,519200.0
2025-08-21,138.53252821704885,139.78357552390523,138.1483456132288,138.54237365722656,270400.0
2025-08-22,139.15313972496236,141.1922734473183,139.0841915723422,139.3206024169922,356500.0
2025-08-25,138.8674588166062,139.4979127296023,136.88744301904194,137.47848510742188,245800.0
2025-08-26,136.9957973337368,138.06953652648775,135.95159446141804,137.62625122070312,442900.0
2025-08-27,137.01548945470773,138.47342629437426,136.95638675089546,137.3602752685547,729100.0
2025-08-28,138.07938928608468,138.07938928608468,135.35069910089788,136.8184814453125,320800.0
2025-08-29,137.09429553325865,137.7838521169858,136.2865335440943,137.19281005859375,370700.0
2025-09-02,135.37041901487592,136.46386429017952,134.13906239994887,134.37548828125,310600.0
2025-09-03,134.0503903916783,134.1488898889654,132.43485133034417,133.20321655273438,382300.0
2025-09-04,134.3163671782823,136.41458834161003,133.0258929963137,136.3948974609375,401800.0
2025-09-05,136.94653328871905,138.71968945525342,135.5772656161853,136.552490234375,440800.0
2025-09-08,136.52295752982062,137.91193130257207,135.62652636886406,136.23728942871094,616100.0
2025-09-09,136.19786500295976,137.39967006705987,133.08500740809663,135.00592041015625,637100.0
2025-09-10,134.09965957050477,135.40982475360394,132.83875165602893,134.21786499023438,685100.0
2025-09-11,134.71040519706986,136.2175843964125,133.84352538471833,135.05519104003906,477500.0
2025-09-12,134.58232620679007,135.00592063066784,133.20321303157323,133.2130584716797,261300.0
2025-09-15,133.94202034472283,134.13903435567997,132.62200993698394,132.83872985839844,298000.0
2025-09-16,132.77962562814162,133.40023410540573,132.0999294759084,133.19337463378906,474800.0
2025-09-17,133.4002434882413,135.02564317844585,132.18859283278562,132.6417236328125,377400.0
2025-09-18,132.88797027728828,133.48887277280454,132.0703628945154,132.4939422607422,254800.0
2025-09-19,132.65156489801703,133.08500475264486,131.35124533413355,132.43484497070312,877200.0
2025-09-22,132.11962230163485,132.92739938115005,130.691251766929,130.74050903320312,402100.0
2025-09-23,131.0261738005905,131.95215627068484,130.00169183165633,130.0509490966797,319700.0
2025-09-24,130.0312388605038,131.32169799268698,129.38107905871175,129.5386962890625,353300.0
2025-09-25,129.5387167548073,130.54350796803172,128.32706604637153,128.86886596679688,388700.0
2025-09-26,129.37123644965243,130.4548211118124,129.00675974879576,130.31690979003906,274400.0
2025-09-29,130.4252615354418,130.70108416159653,129.40077964275358,130.29721069335938,540600.0
2025-09-30,129.74557555443596,131.76498814664785,129.74557555443596,131.66648864746094,310400.0
2025-10-01,131.34141139667054,132.35604794922318,130.33662028487404,132.1393280029297,310100.0
2025-10-02,131.66648573117217,132.38559368725765,130.97692912730892,131.19363403320312,398500.0
2025-10-03,130.49423360821496,131.58767874762543,130.45482178395852,131.23304748535156,402000.0
2025-10-06,130.90797079558112,131.21334480064905,129.45004891757588,129.9130401611328,447100.0
2025-10-07,130.13960666531722,130.5336347337186,127.8739076939909,128.64227294921875,438800.0
2025-10-08,129.2234849642671,130.0411075829899,128.31720827430195,129.64707946777344,361300.0
2025-10-09,129.73571125193516,130.8587077217144,128.258083526899,128.66197204589844,554200.0
2025-10-10,128.98703332161094,130.04106646369215,127.95269105721786,128.9771728515625,426000.0
2025-10-13,129.0363213593292,130.37603789072034,128.21869880410003,128.27780151367188,311400.0
2025-10-14,128.10046262811323,129.10525366111025,127.11537750629039,127.86405181884766,337400.0
2025-10-15,127.86406447402499,128.44526114593418,125.95299674355027,126.18942260742188,438300.0
2025-10-16,126.5243419047704,127.56852978216413,125.94313774513942,127.23360443115234,352700.0
2025-10-17,127.23361868299475,128.15960125344935,126.92824465044238,127.41092681884766,339700.0
2025-10-20,127.67689829106764,128.14973499654218,126.11061637022783,128.0610809326172,240500.0
2025-10-21,128.66197064438,129.80467301345007,127.19418837559832,128.62257385253906,311600.0
2025-10-22,128.70139020897744,130.13962138056118,128.04138485261248,128.1201934814453,357500.0
2025-10-23,128.27838836608,130.0482160538345,128.19928781482736,129.29678344726562,378600.0
2025-10-24,129.27699821696652,129.41542040316887,127.09188897025071,127.42807006835938,489300.0
2025-10-27,127.68513804202082,128.43657062662018,127.00290900843953,127.32919311523438,521700.0
2025-10-28,127.29953156353623,127.65547648827675,126.03395296154486,126.6568603515625,413500.0
2025-10-29,125.84608767724626,126.06361040803851,122.02957306455488,122.9095458984375,651100.0
2025-10-30,122.6425973459498,124.10591981246533,121.65386309537952,122.95899200439453,702600.0
2025-10-31,113.99117408852003,116.76951495369767,102.06704129042897,114.70306396484375,2758200.0
2025-11-03,114.78215353846566,114.78215353846566,107.07003104374891,111.84561920166016,1661000.0
2025-11-04,113.07164922422088,114.69317278774453,111.26226373964292,112.8936767578125,1029100.0
2025-11-05,113.04197713771558,114.73271162837109,111.49954673475034,114.26800537109375,896900.0
2025-11-06,113.72420198995826,115.64234871180304,112.517952627641,114.84147644042969,880300.0
2025-11-07,114.9205721317626,115.60279355716192,113.39792065465342,114.91068267822266,697200.0
2025-11-10,114.68328006091402,115.45449154553131,112.71570107535919,115.06888580322266,514000.0
2025-11-11,115.64234460825183,118.16361969350976,115.64234460825183,116.93758392333984,484800.0
2025-11-12,117.0067994446968,118.32181771681981,116.58165098825971,116.8288345336914,547500.0
2025-11-13,116.96725913412712,120.50692184487997,116.96725913412712,118.8458480834961,679400.0
2025-11-14,118.42069332802943,119.33033453666947,117.05624283023447,117.27376556396484,521200.0
2025-11-17,117.15511423578639,118.1438484441411,116.24548057452645,117.99553680419922,820200.0
2025-11-18,118.31193671929118,118.75686408712447,116.72995598156568,117.96587371826172,817400.0
2025-11-19,118.16362983624596,118.16362983624596,116.38390520642318,116.67063903808594,598900.0
2025-11-20,116.67064242743679,118.26250518606629,116.04774256062495,117.24411010742188,507400.0
2025-11-21,116.79916971414367,120.86286792776397,116.79916971414367,120.1509780883789,509100.0
2025-11-24,119.48852930748254,121.02107037008182,119.08315219875638,120.10154724121094,740000.0
2025-11-25,121.0309595133857,122.68214385066395,121.0309595133857,122.04935455322266,543600.0
2025-11-26,121.63407548431789,123.11717675407199,121.63407548431789,122.41517639160156,538000.0
2025-11-28,122.23721179455744,124.65961521692697,122.23721179455744,123.34459686279297,315700.0
2025-12-01,123.47312464549341,123.55222519221778,121.64396787729149,121.89115142822266,536800.0
2025-12-02,122.3756388635315,122.4646288715747,119.43910438009662,120.23008728027344,325400.0
2025-12-03,120.08176229804191,122.86011045381893,120.04221956935034,120.68489074707031,543100.0
2025-12-04,120.82331241795377,122.68213748322397,120.55635751147511,120.64533996582031,708000.0
2025-12-05,120.61568357957054,122.11856379579517,119.26112254625717,120.53659057617188,537000.0
2025-12-08,119.557730555852,120.72443714432647,117.95598607474565,118.7173080444336,496600.0
2025-12-09,118.25260671307173,118.49979025868578,114.06037589162156,114.41632080078125,640300.0
2025-12-10,114.86124902547321,116.47289058274676,113.83296456280685,115.84998321533203,734700.0
2025-12-11,116.63107937914778,117.33307972013586,115.84009658555017,116.6805191040039,389700.0
2025-12-12,117.18477675810965,120.26963024864754,116.32458281214376,120.10154724121094,656400.0
2025-12-15,120.11143594513233,121.08039125301917,119.12270172858626,120.95185852050781,588600.0
2025-12-16,121.2880193092629,122.45472593627359,118.17350515259987,121.44622039794922,644800.0
2025-12-17,120.73434038745187,123.19628656831932,118.72721105831677,122.23721313476562,567300.0
2025-12-18,122.2767604710972,122.72169540087228,120.65523693661119,121.23859405517578,457100.0
2025-12-19,121.95047437935206,122.92932668285609,119.89391294648267,120.02244567871094,1300400.0
2025-12-22,120.02244150583525,122.30641504771651,119.70604686997531,121.35723114013672,527800.0
2025-12-23,121.48577032424926,121.6439638690421,119.95322934159698,120.81343078613281,311700.0
2025-12-24,121.1496037277725,121.7823930301015,120.38828169146663,121.36712646484375,198000.0
2025-12-26,120.99141254975284,122.08890816765887,120.34873378036154,121.86149597167969,306000.0
2025-12-29,121.9010457403063,122.90955134918035,120.9419723175224,121.82194519042969,400200.0
2025-12-30,121.41656032047763,122.89966159046664,121.0408365042768,121.35723114013672,289800.0
2025-12-31,120.15097596397585,121.94058998507745,119.98289296138277,120.58602142333984,314300.0
2026-01-02,120.36850209754444,121.61430932967109,119.4193181494529,121.15949249267578,295100.0
2026-01-05,120.38828287586783,123.17651312401219,120.38828287586783,121.61431121826172,435700.0
2026-01-06,120.84309994356978,121.4659997987374,118.75687009500949,119.20179748535156,777200.0
2026-01-07,119.31055741898699,120.57613602320409,116.28503309681528,119.0831527709961,478500.0
2026-01-08,118.56900865138992,121.98014631699301,118.17351344536358,121.06062316894531,330000.0
2026-01-09,120.70467850674399,123.5621198728979,120.09166055886544,122.4547348022461,429100.0
2026-01-12,122.60304703866626,123.88840458144911,121.59454142246342,123.7203140258789,477300.0
2026-01-13,123.64122184064439,124.0268275973534,121.15949674370285,122.10868072509766,351900.0
2026-01-14,122.71180688445504,125.72744932780128,122.71180688445504,125.42093658447266,611700.0
2026-01-15,125.70766789113175,125.78676843900955,123.11718152395939,123.7005386352539,381000.0
2026-01-16,122.60303809087354,123.78951608727894,121.85159800331378,123.30503845214844,363400.0
2026-01-20,123.49289879622381,124.11579860493296,122.0493478196131,122.42506408691406,275100.0
2026-01-21,122.90955081825824,124.20479780070094,122.50417370291805,123.60166931152344,421000.0
2026-01-22,123.64121667891544,124.98589581561515,122.66236437418617,123.0677490234375,369700.0
2026-01-23,122.93921055756546,124.85735737798285,122.4745118058816,124.58051300048828,429500.0
2026-01-26,124.99578580485898,125.55936404244027,123.69065685764738,124.92657470703125,315400.0
2026-01-27,123.54233481410213,124.87713201390274,122.77112334791536,123.33470153808594,303100.0
2026-01-28,122.80078648003611,123.6609879626866,121.8614919932062,122.3064193725586,347800.0
2026-01-29,122.88978028418853,123.86862507511535,121.20892754069328,122.4547348022461,386000.0
2026-01-30,121.52532437660433,123.60166469190948,121.27814082612888,123.5423355102539,512700.0
2026-02-02,122.80078342815366,124.49152553193812,122.80078342815366,123.42369079589844,489100.0
2026-02-03,122.51405462375108,126.48876266797768,122.29653189940339,123.22593688964844,658700.0
2026-02-04,124.77433039015442,129.44927260782487,123.77184577350829,128.26812744140625,589400.0
2026-02-05,126.71975064755804,128.1192596554473,121.05225107397254,123.05722045898438,2144200.0
2026-02-06,126.58078326238557,134.97782150042084,126.58078326238557,133.31031799316406,1045700.0
2026-02-09,132.5857587104382,138.531180271334,132.2582131007177,137.43936157226562,1043400.0
2026-02-10,136.78427392403074,139.88104683101494,136.78427392403074,139.126708984375,622100.0
2026-02-11,137.99519392074043,139.50388475135443,137.56840169460276,138.9678955078125,584300.0
2026-02-12,139.11678651599092,140.94308767923593,138.3525134196047,139.46417236328125,572700.0
2026-02-13,139.46418324151318,141.8661694437224,139.3649366253535,141.51878356933594,471900.0
2026-02-17,138.2234773285034,142.55102629654255,138.2234773285034,140.59568786621094,614700.0
2026-02-18,140.41703714664675,142.04482998774162,139.791721402891,140.66517639160156,582000.0
2026-02-19,140.5956812663536,142.25326464590432,139.98030082414553,142.09445190429688,525500.0
2026-02-20,142.0547550361601,144.0597244456509,140.94309602664507,143.97039794921875,664500.0
2026-02-23,142.42200863639354,145.15154037209857,142.06468751245615,144.63540649414062,513500.0
2026-02-24,144.98279666295065,145.8165408414096,142.77931908758302,143.06715393066406,429800.0
2026-02-25,141.35004724560304,142.59074350649368,139.38477346379526,141.61802673339844,348900.0
2026-02-26,142.45176871915783,142.84878541602816,139.95052112226952,140.73463439941406,331300.0
2026-02-27,140.47658357934912,142.9381205686862,139.9505296087492,142.64036560058594,344600.0
2026-03-02,141.93563886113196,142.2830398395081,140.56590547180699,141.60809326171875,335000.0
2026-03-03,139.5931967078321,140.26814325067423,135.90088396317486,138.71974182128906,347300.0
2026-03-04,138.302888395737,138.47162126788456,134.9976717766612,136.02000427246094,389000.0
2026-03-05,134.9877396254558,135.32520533966746,133.40957777498073,133.72718811035156,452300.0
2026-03-06,133.0026313554941,133.0026313554941,130.02496050425168,131.096923828125,398500.0
2026-03-09,129.99519404049997,132.98278521657096,126.5807954705799,132.75450134277344,545700.0
2026-03-10,132.3574660154593,133.1316591702968,130.42196798314936,131.14654541015625,503100.0
2026-03-11,130.8190202738326,132.28800044532838,129.0721101988683,131.03738403320312,563800.0
2026-03-12,130.29295237048808,131.8016279987067,127.68252279954663,127.90088653564453,620600.0
2026-03-13,129.18127925269795,129.18127925269795,126.10436183607526,127.69244384765625,660600.0
2026-03-16,128.5162697582332,130.43191254892886,125.06217580985977,128.0894775390625,370700.0
2026-03-17,129.00262050471235,130.04480827067758,127.2855013216824,128.53611755371094,276700.0
2026-03-18,123.45423058912087,125.63786042046195,120.51626292882625,123.29542541503906,910500.0
2026-03-19,122.0944332187195,123.8909588849741,120.54603921873606,123.04728698730469,518500.0
2026-03-20,123.33512999241371,123.33512999241371,119.41452545613383,120.15894317626953,1481500.0
2026-03-23,122.5907105268858,125.39964092902298,122.07457667427936,123.21601867675781,455200.0
2026-03-24,122.24332284607306,124.28798782763778,121.95548040949986,123.2259521484375,405000.0
2026-03-25,124.50634549167631,125.62793211237509,122.78921864642815,124.88351440429688,337200.0
2026-03-26,124.28798636131239,126.3922023143744,123.19617519683187,123.76193237304688,442100.0
2026-03-27,123.01751427118627,123.28550132328671,120.85373975633635,121.08202362060547,381400.0
2026-03-30,121.64777727824665,123.01751071469691,120.19864504103799,122.44182586669922,562000.0
2026-03-31,123.46415851677581,126.01502957768723,122.67010992701152,125.08202362060547,557800.0
2026-04-01,126.39219982096562,127.68252689973865,125.38972274230011,125.80659484863281,380200.0
2026-04-02,124.2085781211438,126.14406117582702,123.32520302720033,125.07210540771484,297500.0
2026-04-06,123.66266876079281,125.25076596450165,123.66266876079281,125.07210540771484,461100.0
2026-04-07,124.38723692091199,126.22346576757812,123.8711106378232,124.67507934570312,376900.0
2026-04-08,130.4021481364575,131.68254004802253,127.19617800807119,131.03738403320312,645200.0
2026-04-09,130.24332882387228,131.45424955756675,126.39220287440348,130.42198181152344,424100.0
2026-04-10,131.2656579543429,131.71230555728022,129.87608426848973,130.521240234375,407400.0
2026-04-13,129.82646170678544,131.43439923843442,126.63042687940094,131.126708984375,396300.0
2026-04-14,130.2532453341348,131.73216065356567,129.99518597737963,130.03488159179688,315500.0
2026-04-15,129.83638260646234,130.05474636457114,127.64284005257605,128.6850128173828,407100.0
2026-04-16,125.95547520842267,129.35994576168224,125.95547520842267,127.33512115478516,393800.0
2026-04-17,128.6849981610624,131.31528307681364,128.6849981610624,129.65771484375,401100.0
2026-04-20,129.59817078840075,131.00759986778516,128.69494031122633,129.945556640625,403600.0
2026-04-21,129.72718762909471,131.2656538985368,125.74703979492188,125.74703979492188,310200.0
2026-04-22,126.33265459801167,126.33265459801167,122.04480863207884,123.62297821044922,458900.0
2026-04-23,124.44679072012924,126.49146323670142,123.51379231359721,124.01007080078125,440800.0
2026-04-24,123.48401687155638,123.48401687155638,121.65770810014067,123.1564712524414,440900.0
2026-04-27,123.11676900112164,125.29047121573323,122.62049050993973,123.8016357421875,359700.0
2026-04-28,125.18128618602746,125.70734016180099,122.79914797388655,124.8338851928711,354300.0
2026-04-29,124.20857785922294,124.96292327213307,121.87607050853111,121.9852523803711,448400.0
2026-04-30,122.51130595027864,125.14158341040145,120.97283963229869,122.75944519042969,764800.0
2026-05-01,126.26316859263083,127.5237125861033,117.0224658192811,118.13412475585938,989400.0
2026-05-04,117.79666211505766,120.84381172589876,116.58574139374336,119.7023696899414,739600.0
2026-05-05,120.00014032911528,122.78922301811379,119.92073395333378,121.1217269897461,628600.0
2026-05-06,122.74597925597982,125.94466800462597,121.24129756714204,122.19791412353516,917000.0
2026-05-07,122.5068295340525,126.02439054042098,122.13813047351475,124.66918182373047,749700.0
2026-05-08,124.78875603965518,125.4165335007669,119.9658058031768,120.56369018554688,794900.0
2026-05-11,120.79288554794945,120.79288554794945,119.0191585502766,119.53732299804688,706100.0
2026-05-12,120.02559365453983,120.43415267647454,116.72725880994862,117.6340560913086,696600.0
2026-05-13,117.58423293808002,118.33159035082205,116.01976505817387,117.46465301513672,679500.0
2026-05-14,118.31166263789773,119.73662439056804,116.62761485678391,117.57426452636719,531000.0
2026-05-15,117.49455009110837,117.5045093824967,114.06666843041747,114.26596069335938,447000.0
2026-05-18,115.19268785792543,116.90662874327987,114.76420263658683,115.40194702148438,433100.0
2026-05-19,115.48166685737739,115.63113986049136,112.05378509001822,113.20970153808594,575800.0
2026-05-20,113.66807993613209,115.04321484042606,111.15696237122292,114.85388946533203,562600.0
2026-05-21,116.08951407739181,116.08951407739181,112.37265332877841,115.1030044555664,345600.0
2026-05-22,115.39198749681162,116.38846404651633,114.30582410432685,115.82047271728516,405800.0
2026-05-26,115.79056648170686,116.55785764558959,114.96349676302546,115.96993255615234,344500.0
2026-05-27,116.52796630163347,117.69384200162881,114.32575411191587,114.89374542236328,464000.0
2026-05-28,114.40547144179769,115.93007936247552,112.95061657623215,115.58131408691406,510100.0
2026-05-29,114.65458561775299,116.84683851674723,113.34920381323532,115.44180297851562,559600.0
2026-06-01,114.28589767180515,114.72434218302038,111.63526640610465,111.9840316772461,706800.0
2026-06-02,111.5555436879482,112.65167394505289,110.84804626905223,111.78473663330078,452400.0
2026-06-03,111.29646253608045,113.61824699938008,111.29646253608045,112.13349914550781,372600.0
2026-06-04,114.54497230632394,115.35212345281656,111.14699134502068,112.15343475341797,337600.0
2026-06-05,112.69152600064275,114.18624078068318,111.58544405772433,112.96057891845703,466300.0
2026-06-08,111.86445781905672,112.24311616501637,110.55906839000053,111.54558563232422,422200.0
2026-06-09,112.88085932662787,115.74074968498803,112.27300803930216,115.49163055419922,444400.0
2026-06-10,115.74074928767203,116.13934141606836,112.97054577921195,114.26596069335938,496800.0
2026-06-11,114.70441351982215,116.59772043978674,113.85740999319688,116.16923522949219,395200.0
2026-06-12,117.48458764205596,118.05257897569324,115.96993901734801,117.30522155761719,342600.0
2026-06-15,118.28175862932584,120.31457162088154,117.14577601676713,117.66394805908203,576100.0
2026-06-16,118.08246565966249,120.62348378448296,113.36912845320511,120.22489166259766,474700.0
2026-06-17,121.19147655168894,121.918900150595,119.03908362900873,119.56721496582031,680500.0
2026-06-18,120.03556323646836,122.1182031608104,118.69032142639777,119.89605712890625,750600.0
2026-06-22,119.13873446752551,120.58363003359555,118.46113010611298,119.57718658447266,468400.0
2026-06-23,119.93591657137902,122.14809569936509,118.6604278207416,120.1850357055664,514100.0
2026-06-24,121.55021059109053,124.60939323702425,121.34094382937874,123.84210205078125,404900.0
2026-06-25,125.28699706013307,127.68850153642342,124.45991971828299,125.98452758789062,363500.0
2026-06-26,125.49625757990486,126.67210019838983,124.3204149614199,125.53611755371094,727400.0
2026-06-29,125.16742108368359,125.60587320209562,123.48337326752176,124.84854888916016,446600.0
2026-06-30,124.16097333332938,125.86494727656601,123.5033027809896,124.75885772705078,329300.0
2026-07-01,124.67914609082169,126.39307933521575,123.66273577346423,124.80868530273438,405600.0
2026-07-02,125.82508774888942,127.77818082996899,124.96812492977865,126.5325927734375,468400.0
2026-07-06,125.98452783897301,126.6023460237271,123.74245564919634,125.56600952148438,431400.0
2026-07-07,126.18381913439254,128.26645901687073,125.71548155556971,127.2400894165039,392700.0
2026-07-08,126.00445175211411,126.26353777363065,122.60647080352626,123.77234649658203,537700.0
2026-07-09,124.02146439127118,125.03787467960888,123.34386006655016,124.0114974975586,302100.0
2026-07-10,124.55956853594634,126.53259544666133,123.93179104742975,125.08769989013672,385200.0
2026-07-13,125.64571994715708,126.72191640641843,123.96167980892794,124.449951171875,391600.0
2026-07-14,127.96751666781715,128.95403392567474,127.5091383673285,127.82801055908203,739900.0
2026-07-15,129.25298235497795,130.3092450844948,127.99741214779503,128.65509033203125,466800.0
2026-07-16,129.56187796196684,134.6040465870392,129.56187796196684,134.27520751953125,579300.0
2026-07-17,135.351401437915,136.16850424088722,130.24944675099272,132.1427459716797,530800.0
2026-07-20,131.9135687694055,131.9135687694055,129.2928306127641,129.4522705078125,422900.0
2026-07-23,128.39600579528673,129.36258923692642,127.71839385448645,128.54547119140625,382800.0
2026-07-24,129.13338680160044,132.26232242316664,129.13338680160044,131.8936309814453,335900.0
2026-07-27,132.72071171310446,133.60757521827134,132.19258036761323,132.9000701904297,411200.0
2026-07-28,134.9030016293852,137.54365843276426,134.3549364800917,137.32443237304688,593100.0
2026-07-29,135.52081464440568,136.11870667337666,134.0759266469227,135.75,580000.0
2026-07-30,136.39999389648438,136.39999389648438,133.11000061035156,133.8699951171875,627000.0
2026-08-03,137.22999572753906,138.4600067138672,134.52999877929688,136.77000427246094,642500.0
2026-08-04,137.8699951171875,137.8699951171875,135.33999633789062,136.17999267578125,511900.0
2026-08-05,136.8699951171875,136.8800048828125,134.8699951171875,136.75,454800.0
2026-08-06,138.6199951171875,138.69000244140625,134.6699981689453,135.77999877929688,545000.0
2026-08-07,135.05999755859375,137.67999267578125,134.7100067138672,135.4199981689453,686300.0
2026-08-10,134.38999938964844,134.52000427246094,132.92999267578125,133.67999267578125,446700.0
2026-08-11,132.8000030517578,135.0500030517578,132.8000030517578,134.75,343700.0
2026-08-12,133.50999450683594,134.47000122070312,132.27000427246094,133.14999389648438,315100.0
2026-08-13,134.44000244140625,134.44000244140625,132.08999633789062,132.57000732421875,490800.0
2026-08-14,132.08999633789062,132.75,129.55999755859375,132.10000610351562,381600.0
2026-08-17,133.16000366210938,133.16000366210938,130.22000122070312,131.74000549316406,374500.0
2026-08-18,132.75,133.47000122070312,131.22000122070312,131.72999572753906,500100.0
2026-08-19,133.0500030517578,134.3800048828125,132.2899932861328,132.92999267578125,390400.0
2026-08-20,131.4499969482422,133.8300018310547,131.16000366210938,132.9600067138672,420886.0
