Date,Open,High,Low,Close,Volume
2023-08-28,122.76582909708209,124.64151611321,122.76582909708209,124.47799682617188,331900
2023-08-29,124.85310877370199,126.93079109909763,124.46834463348918,126.79612731933594,472400
2023-08-30,127.32515422708775,128.18123425828122,126.68069080380738,127.8253402709961,298900
2023-08-31,128.20050312098007,128.63335002746217,127.20014549983807,127.50794219970703,305800
2023-09-01,128.02734781293066,128.69103845879502,127.46945079751787,127.49830627441406,252000
2023-09-05,126.66146169919045,126.95003116428316,122.50611130451453,122.7081069946289,325300
2023-09-06,122.91972673122726,123.13133602720143,121.39032026937542,121.59232330322266,291100
2023-09-07,121.47688528995286,122.32334442871263,120.37071217704028,120.58232879638672,328600
2023-09-08,120.72660753492579,121.84239419256309,120.35147166964357,120.53422546386719,238800
2023-09-11,122.15020697473304,123.05438442733607,121.59231727500303,122.16944885253906,333500
2023-09-12,121.30374940797992,122.43877803875952,120.64004404886371,121.7077407836914,258000
2023-09-13,120.98632753897883,121.76545483171917,120.34186404156085,120.59195709228516,279300
2023-09-14,121.20755406828378,122.44839093096296,121.20755406828378,121.92897033691406,217900
2023-09-15,121.66927042883084,122.35221036140925,120.39957794288019,121.130615234375,589200
2023-09-18,121.54423019858976,121.54423019858976,120.15910842445712,120.85166931152344,175100
2023-09-19,120.8997477295657,120.8997477295657,119.3318650395971,120.53422546386719,218600
2023-09-20,121.04402623277237,121.2941192581564,119.81281032107518,119.88014221191406,206200
2023-09-21,119.5915814853835,119.61081602357613,117.53314098335909,117.56199645996094,335700
2023-09-22,117.66781895592811,118.21609509335627,117.45620231716168,118.00447845458984,341200
2023-09-25,117.34077068831786,119.39921139699219,116.84059192021189,119.3126449584961,258800
2023-09-26,118.82206477761558,119.48577007673056,118.53350268046277,118.88939666748047,547000
2023-09-27,119.31264031088143,119.70701074637915,118.18723262251139,118.81245422363281,362400
2023-09-28,119.13949239900526,120.85165249904773,118.56236085294752,120.6881332397461,219300
2023-09-29,121.66925605429941,121.99630191131372,120.03404878510511,120.27452087402344,330900
2023-10-02,119.78397828008337,120.69777679296456,119.26455758972114,120.28416442871094,244100
2023-10-03,119.29339878482428,120.53423572898005,117.82171067436374,118.1872329711914,236300
2023-10-04,118.8413150678333,119.90901178172992,117.66781004256849,119.49539947509766,208200
2023-10-05,119.23567945050839,120.1687123278283,118.11989277624103,119.03368377685547,466700
2023-10-06,118.8990326896935,121.86165089685026,118.6874160550928,121.59232330322266,491700
2023-10-09,121.02479420203984,122.37143938534139,120.89975135607021,122.10211181640625,275700
2023-10-10,122.3906880798059,123.70847793865926,121.68851359938441,121.71736907958984,322000
2023-10-11,122.66961669921875,122.83313595291355,121.82315761659957,122.66961669921875,212900
2023-10-12,122.37144727599267,122.54458748699037,120.29376474402021,120.64004516601562,189300
2023-10-13,121.19793048814316,121.84239391280202,120.62079895354378,121.16907501220703,324900
2023-10-16,122.50611121132462,122.57344310797819,121.36146162958764,121.8808822631836,275200
2023-10-17,121.2075666764976,123.44876120681954,121.2075666764976,122.62154388427734,314400
2023-10-18,122.03477780825592,122.80428408635328,121.46725986473184,121.94820404052734,287300
2023-10-19,121.2748918959895,122.61191619220571,120.61118654800225,120.938232421875,443900
2023-10-20,121.1306013926972,121.65964292581712,117.28304795510005,117.56199645996094,446500
2023-10-23,117.08107007558768,118.46619187200963,116.59050488291709,116.86945343017578,379000
2023-10-24,117.4754210963126,119.0529173972163,117.08105069039952,118.6393051147461,312100
2023-10-25,118.15678802771491,119.459667086335,117.6356349316462,118.09888458251953,431300
2023-10-26,117.02760662773419,121.01345262337937,117.02760662773419,119.12186431884766,576000
2023-10-27,119.16046741363326,119.51754841038496,116.1590166748117,116.94074249267578,364000
2023-10-30,117.66456388692826,118.05060396077593,116.63191092316939,117.90583801269531,283100
2023-10-31,118.23398596724621,118.60072002279092,117.57771998783277,118.00235748291016,422900
2023-11-01,117.847941489138,119.12186865336518,117.36539320930797,118.63932037353516,360500
2023-11-02,119.40175264455395,119.95185741255717,118.68758322153812,119.26663970947266,384300
2023-11-03,120.08696643881918,121.57321603943892,120.08696643881918,120.974853515625,278000
2023-11-06,120.89764432950582,121.34159523213705,120.39579735185238,120.82044219970703,173500
2023-11-07,120.27033814314946,120.62741916445184,119.8360402653971,120.2027816772461,205000
2023-11-08,120.52125543592591,121.10996492498091,120.06766623895945,120.75288391113281,175800
2023-11-09,121.30297581014376,121.30297581014376,119.73951690200494,120.04834747314453,118600
2023-11-10,119.90357848136097,121.39948089409748,119.56579620325637,121.33192443847656,195600
2023-11-13,121.01345529818798,121.1003178161299,120.02906006116073,120.1834716796875,183100
2023-11-14,121.5538961259544,123.39723389784527,120.9362349809369,123.38758087158203,267400
2023-11-15,123.35864839876807,124.304446316357,122.90505181396026,123.25248718261719,388600
2023-11-16,123.19456114919856,124.13069850423472,122.4128280315334,123.09805297851562,217000
2023-11-17,124.07282146383467,124.57467583908908,123.15598260268955,123.46481323242188,162700
2023-11-20,123.00155853990697,123.19458227747852,122.01716324915157,122.8760986328125,213900
2023-11-21,123.0112053695368,123.82189030028484,122.76027820488832,123.44550323486328,160600
2023-11-22,123.96665215202738,124.69047458350228,122.91470041923974,124.08247375488281,174800
2023-11-24,124.46849858209583,124.46849858209583,123.62886932734556,124.04385375976562,65900
2023-11-27,123.35865496882094,123.82190460607035,122.42251002914217,122.56727600097656,367500
2023-11-28,122.56726027052797,122.57691329757223,121.10996243713889,121.22577667236328,218000
2023-11-29,121.25473635567784,121.98821183407688,120.55986562488955,120.9941635131836,331800
2023-11-30,121.07135636226576,122.69271882208767,120.45369517405763,122.46109771728516,301000
2023-12-01,122.00749831802362,124.05349819494825,122.00749831802362,123.62886810302734,218300
2023-12-04,123.00153838021136,124.38163394756934,122.46108672979534,123.93768310546875,192000
2023-12-05,123.77362656816942,124.19827138588248,121.48634520426313,121.5925064086914,178000
2023-12-06,121.9785424640825,122.8567837875821,121.48634120186732,121.95924377441406,179500
2023-12-07,121.83379907959785,122.67343581612694,121.5925249170082,122.0750732421875,254000
2023-12-08,121.94960678177719,123.04981631507553,121.23543736051924,122.8760986328125,265800
2023-12-11,122.81818541054639,123.22352418250709,121.93029101464404,123.11736297607422,338000
2023-12-12,123.19457459310557,123.6288724532248,122.2584297728089,123.03050994873047,210300
2023-12-13,122.74098611390058,124.48781597010334,122.74098611390058,124.10176849365234,425000
2023-12-14,124.57466295525923,125.47219566747552,122.45144615272285,122.95330047607422,412900
2023-12-15,122.72167704235878,124.09211233389199,121.57320982713335,121.5828628540039,713000
2023-12-18,122.2873800147062,122.76992827805668,121.48634813039989,122.61551666259766,240500
2023-12-19,123.25249668445615,123.65784288787358,121.63113396009655,121.82415771484375,659100
2023-12-20,121.62145477599356,122.5093491306757,121.08100310513626,121.18716430664062,346400
2023-12-21,121.83378846573932,121.83378846573932,120.49230482765589,121.51531219482422,421900
2023-12-22,121.98820682835046,122.60586803857178,121.71798096926643,121.86273956298828,312200
2023-12-26,121.73728030157127,122.44180403483686,121.20647424478882,121.43810272216797,274700
2023-12-27,121.71797248147908,122.05575478177946,120.66601347414141,120.90728759765625,283100
2023-12-28,120.61776308128793,121.40914191198428,120.05800534752414,120.830078125,343600
2023-12-29,120.82043808829643,120.98450273280184,119.24732601714967,119.30523681640625,313500
2024-01-02,118.3304992303417,119.7684911575443,118.02166860108136,118.59107208251953,313100
2024-01-03,120.78182769015574,122.81818188143322,118.85163470226065,120.9844970703125,531700
2024-01-04,120.81079207973853,121.52496149850643,119.79743770955358,119.8843002319336,353300
2024-01-05,119.45964384127878,120.02905460628045,118.69721672111496,119.86498260498047,423000
2024-01-08,119.73952451966014,120.7914835515639,118.09886338668615,120.00975036621094,352400
2024-01-09,119.39208886536294,120.28962891792202,118.67791950665958,120.27997589111328,250300
2024-01-10,120.11591846241205,121.04241028792013,119.89395037419895,120.82044219970703,279600
2024-01-11,121.00380927134914,122.53831669687723,120.57917177350777,122.41284942626953,323100
2024-01-12,123.4261986038641,123.50340809589281,121.52495720049569,122.01715850830078,231700
2024-01-16,121.48635575334917,122.39354890156476,121.1292747284493,122.38389587402344,257500
2024-01-17,121.54426685222283,122.8278397204519,121.49600907750106,122.2680892944336,336900
2024-01-18,122.876100447986,125.47220532952528,121.90135080738276,124.63257598876953,444200
2024-01-19,125.1826751057687,126.87159400250694,124.05349922717551,126.23462677001953,418000
2024-01-22,126.33112146870488,127.20936278677414,126.00299220465814,126.61100769042969,266200
2024-01-23,127.19974700779234,127.2480047876553,125.7810536918206,127.22869873046875,217800
2024-01-24,127.50853481683981,127.67259944176305,125.98368069989095,126.2153091430664,294400
2024-01-25,127.4216965566274,127.75948624024079,125.82929313663216,126.6689224243164,332300
2024-01-26,127.08390439522177,127.96214577452949,126.81367854408161,127.10321044921875,219900
2024-01-29,126.47591259694148,127.96215488401634,125.93546085618699,127.63402557373047,187800
2024-01-30,127.42170314326185,128.4447031848622,127.03567039306735,127.63402557373047,228400
2024-01-31,128.14711904243458,128.53436707997895,125.03953294065279,125.73656463623047,537500
2024-02-01,126.29805168978267,126.9273093818835,125.47516261057311,126.3367691040039,298800
2024-02-02,125.81399845204739,126.54007181280666,124.58451009166825,125.94953155517578,344800
2024-02-05,125.01048126027132,127.25646061172087,123.9649337999065,126.48197937011719,319500
2024-02-06,126.31739050105034,127.20803865994195,125.17504224464571,126.94666290283203,369700
2024-02-07,127.21773359206935,128.1955070379212,125.24280583648746,127.59529113769531,393000
2024-02-08,127.44039987265825,130.53831002584943,127.3435841792457,127.90508270263672,620700
2024-02-09,127.89540969408253,134.7689104528772,127.31454506556426,134.52688598632812,650900
2024-02-12,134.7205256063229,135.9887316640438,133.12315499117534,133.219970703125,491300
2024-02-13,132.32930021222504,132.9488822581375,130.67384635486445,131.59353637695312,275900
2024-02-14,131.91298811347036,133.0747171783735,130.85776515911542,132.79396057128906,335000
2024-02-15,132.7939558437664,133.41353776272464,130.2769107607478,130.73190307617188,471400
2024-02-16,131.05141105332157,133.59751331676136,130.73193696622823,133.11346435546875,453900
2024-02-20,132.76492924425213,135.66922259050702,132.580988302136,135.23358154296875,373000
2024-02-21,134.6430432067918,135.6401827546635,134.5559179504535,135.53369140625,276300
2024-02-22,135.98868937891896,137.87647699890843,135.60145619553617,136.956787109375,295700
2024-02-23,137.44086687732337,137.5183164858138,136.1145774154304,136.85032653808594,190300
2024-02-26,136.9858566979064,137.52798917361454,136.30819110327124,137.3924560546875,199200
2024-02-27,137.39243933350093,137.64413944601768,135.3400767046714,135.83380126953125,244600
2024-02-28,135.194869665944,136.7341565973834,134.88508601058652,135.93063354492188,189600
2024-02-29,136.14360929042408,137.1117071682836,135.36912803373622,135.97903442382812,250600
2024-03-01,135.41751376903366,136.2984714673089,135.1077154081465,135.81442260742188,151400
2024-03-04,136.20167928350625,137.58605202090553,136.07582184483363,137.43116760253906,260300
2024-03-05,137.73131837481012,138.64133293615419,137.21822757269135,137.9733428955078,190200
2024-03-06,138.37021994084103,139.05757592063267,137.93457885855102,138.50576782226562,184000
2024-03-07,139.89016108176327,140.50974321124528,139.25121285610905,140.03536987304688,250100
2024-03-08,140.09344450787563,140.44196032011527,138.40894895338388,138.52511596679688,185200
2024-03-11,138.23468763130884,138.8058765983286,137.45053072424915,138.18629455566406,226700
2024-03-12,138.24436356711726,138.2927714096869,136.9664674288769,137.86680603027344,242200
2024-03-13,138.43797349969117,138.43797349969117,136.43400413539493,136.65667724609375,336800
2024-03-14,136.85031074719467,137.10201086674357,135.88221291077477,136.43402099609375,235200
2024-03-15,135.5724503861225,137.8668529105155,135.28203277595026,136.5018310546875,599500
2024-03-18,136.4340127765464,136.79221899940188,134.49781722035388,134.81729125976562,299700
2024-03-19,134.44943456936542,135.84349784138894,134.44943456936542,135.059326171875,253000
2024-03-20,135.175534658447,135.60150016147787,134.70116129879827,135.5046844482422,220000
2024-03-21,135.8338212875163,137.08267591797204,134.85604767387457,136.63734436035156,255800
2024-03-22,137.47958214730536,137.9055476013454,136.55021640394727,137.07298278808594,276000
2024-03-25,136.69539997271303,139.45448448167053,136.66635822183974,138.39926147460938,316300
2024-03-26,138.27343080301986,139.7062116207552,138.07012373555634,138.63162231445312,314200
2024-03-27,139.08663687316903,140.5194177665606,139.08663687316903,140.04505920410156,218200
2024-03-28,140.1999450522203,140.71303575776633,139.06725750918295,139.2996063232422,247800
2024-04-01,139.2028031090346,139.2028031090346,137.5860812427115,137.7506561279297,204400
2024-04-02,137.3149905478121,137.3149905478121,135.91125167032422,136.1436004638672,202600
2024-04-03,136.18232831953642,136.6857433581489,135.40784705367142,136.38563537597656,258700
2024-04-04,137.3053243590496,138.1959726377349,136.47275958975655,137.22787475585938,403600
2024-04-05,136.86968595043953,138.20565100866335,136.45339617162944,137.20851135253906,288300
2024-04-08,137.15044783550806,137.83780394499973,135.91128352352635,136.02745056152344,312500
2024-04-09,135.94029261944223,136.59860681125565,134.91411130502746,135.83380126953125,242600
2024-04-10,134.5462509693493,135.74669776324401,134.0331602299272,134.95285034179688,200700
2024-04-11,134.8173252418579,135.5724405173476,134.03316820746505,134.6914825439453,265300
2024-04-12,133.76205397332316,134.5171689780137,131.62256638403272,132.822998046875,299200
2024-04-15,134.1880154996667,135.34972972217028,133.43290051643947,133.7910919189453,319600
2024-04-16,133.39420463004214,134.94316719612974,132.97792961895718,134.16868591308594,281700
2024-04-17,134.44945414271976,135.03030407595662,133.93636338762582,133.98475646972656,565400
2024-04-18,133.9750418295626,134.99154738199303,133.8104669910927,134.6720733642578,246600
2024-04-19,134.62367866886507,135.4562433737092,134.34293680453402,134.89474487304688,276600
2024-04-22,135.09805115725143,136.64699877649178,134.80761886239384,135.84349060058594,298800
2024-04-23,135.31105737697965,136.65671296414016,135.06903288452628,135.67892456054688,417200
2024-04-24,135.88280137491373,136.80518972389316,135.58181289617383,135.94105529785156,559200
2024-04-25,135.7760094089554,137.14503597865468,134.8827479436081,136.1061248779297,694400
2024-04-26,137.87323164710924,144.19403432783037,137.77613189586884,139.16458129882812,489500
2024-04-29,140.68896186966708,143.71829961506626,140.17436572617285,142.12596130371094,676700
2024-04-30,141.50455876401378,141.85409715843193,139.87337465161463,140.18408203125,585100
2024-05-01,140.77636391358544,142.9318483462627,140.37827561400445,141.155029296875,359600
2024-05-02,141.5239675984383,142.46577897675033,141.06762539181938,141.6793212890625,356500
2024-05-03,142.8347262098354,142.85414912308485,140.63069223929037,142.54344177246094,303300
2024-05-06,143.46583362092616,144.74747925029178,142.88327954740367,144.70863342285156,260200
2024-05-07,144.00958866873592,146.00971937546657,144.00958866873592,145.368896484375,392900
2024-05-08,145.3688644787559,146.48543745181516,145.135833983662,146.4077606201172,223500
2024-05-09,146.6116974972741,147.32047837661355,144.31057824435283,144.74749755859375,299100
2024-05-10,144.62126017257594,144.6698100517693,143.78625262261644,144.1746368408203,186300
2024-05-13,144.21345462568132,145.1358429843686,142.59198955369928,143.5726318359375,167500
2024-05-14,143.99014505242278,143.99984910137368,143.18426452924012,143.6017608642578,137600
2024-05-15,143.66003210063693,144.02897856662815,142.5046131956969,142.99978637695312,211100
2024-05-16,143.08718529410942,143.6017814537863,142.17450084023903,143.2522430419922,235500
2024-05-17,143.55320979655946,143.86390229710423,142.85413315115838,143.37843322753906,169500
2024-05-20,143.30077614301211,144.09695263816212,142.7667571298435,143.86392211914062,163400
2024-05-21,143.64060931065208,144.35909414501361,142.81530585917272,144.27171325683594,280400
2024-05-22,143.7668498771203,144.5047576961729,143.18428093579104,144.46591186523438,283300
2024-05-23,144.33970165023453,144.62126725880347,143.27166351702041,143.42701721191406,171700
2024-05-24,144.1649355408977,144.5047699213138,143.077489228118,143.78627014160156,162300
2024-05-28,143.32989260159044,143.4852462695525,141.5822156907114,142.44635009765625,318400
2024-05-29,141.41716447863772,142.4366527072403,140.31029535438608,140.63070678710938,229700
2024-05-30,140.91228668269574,142.70851373087208,140.78605995699684,141.89292907714844,328100
2024-05-31,141.8443657942061,143.5338036875814,141.6793080690731,143.3978729248047,358900
2024-06-03,144.18433298516325,144.18433298516325,142.0288488421779,143.85421752929688,266200
2024-06-04,143.3590163849127,144.07751597180606,142.4366280767618,143.88333129882812,287900
2024-06-05,143.4269853761024,143.8930315419935,142.80558554980078,143.6211700439453,229200
2024-06-06,143.70858196047192,143.70858196047192,141.17443223714181,141.71817016601562,197600
2024-06-07,141.53367596430135,142.07739902580767,141.22296860610217,141.320068359375,179100
2024-06-10,140.62099421122554,141.57250958640344,139.80540960393014,141.35890197753906,125800
2024-06-11,140.69869527654703,141.504575973223,140.15497211140303,141.27154541015625,147700
2024-06-12,141.9900224631697,142.05798044025738,139.88308812796836,141.59193420410156,221300
2024-06-13,141.6501881317032,142.27158805169188,140.805476550794,141.59193420410156,232400
2024-06-14,140.87341987566188,141.15500025023965,139.5043934580447,140.54330444335938,141500
2024-06-17,140.65981624752195,142.4172120684738,140.3685466316063,142.077392578125,303800
2024-06-18,142.22303735719075,143.39787921333664,142.2133333077604,142.42694091796875,219900
2024-06-20,142.3977978909361,143.24250937170754,141.436563753432,141.57249450683594,199900
2024-06-21,141.63076047927734,142.86385622851674,141.0870374193948,142.58229064941406,444100
2024-06-24,142.9415237902204,143.92216604419272,142.4075048141597,142.4560546875,182900
2024-06-25,142.52403514640127,142.53375401180762,140.30059282386082,140.65013122558594,194500
2024-06-26,140.05782362492792,140.58212369028553,138.80531997053257,139.5335235595703,192400
2024-06-27,139.6888885498047,139.69860741462887,138.135396158235,139.6888885498047,377300
2024-06-28,139.60152272147332,140.1258377569006,136.01875763564942,136.71783447265625,435100
2024-07-01,137.2712545772139,137.36833951304502,134.36814387510577,134.51377868652344,306400
2024-07-02,134.45554794058185,136.41684769271666,133.75647109458023,136.3197479248047,259400
2024-07-03,136.7858055226286,137.2906828198518,136.48481699130676,137.1159210205078,143300
2024-07-05,136.89261727770193,137.3295366167457,135.66922534996536,136.8052215576172,207000
2024-07-08,137.53339169445843,138.35869510013967,137.38775688891062,137.3974609375,249300
2024-07-09,136.766360792669,137.16444902591755,135.68861875591176,135.97018432617188,238400
2024-07-10,136.65955303485114,137.51398340041877,136.48479126844396,137.18385314941406,142000
2024-07-11,137.09649774945188,139.13547429525167,136.65957843687883,137.96063232421875,244500
2024-07-12,139.24225471520856,141.26180800557879,139.24225471520856,140.38795471191406,263900
2024-07-15,140.552991887278,141.4559720105371,138.9800769300815,139.2616424560547,319900
2024-07-16,139.66949821673376,141.07735596844665,139.66949821673376,140.35885620117188,178800
2024-07-17,140.14523913079555,141.5336886876332,140.14523913079555,140.65013122558594,242300
2024-07-18,140.40738917518402,142.97066571318356,140.3976851256369,142.0288543701172,434200
2024-07-19,142.32983440463798,142.32983440463798,140.45593069491323,141.69873046875,251200
2024-07-22,141.74729152284237,143.2716569904321,141.0287918281976,142.91241455078125,235700
2024-07-23,143.572641002004,144.19404091845544,141.43657971516106,141.7958221435547,234500
2024-07-24,141.82495301591825,142.3686760490821,139.71800403939616,139.95103454589844,250600
2024-07-25,139.11343221874438,140.30168787194964,137.54532532307127,137.8083038330078,558100
2024-07-26,139.40562054037346,147.35327797180082,138.64591810105864,142.84376525878906,562800
2024-07-29,142.76584597383152,144.4897929937424,141.39253199421196,143.9541015625,390900
2024-07-30,143.5450338076538,144.05149220142636,141.62629393482098,141.9574432373047,411000
2024-07-31,142.6879050682789,144.97676136731175,141.62627166223308,143.15541076660156,280600
2024-08-01,143.05804117385702,145.64881403519908,141.64575972559882,143.20413208007812,335300
2024-08-02,142.76584278576115,143.17491218000953,140.00948044813856,141.8990020751953,213500
2024-08-05,139.69780574748174,139.69780574748174,135.85059153457982,137.0193634033203,448500
2024-08-06,137.6524820174173,142.28861765575468,137.43820540463662,141.15879821777344,476000
2024-08-07,142.21069714802718,143.4281711438002,139.73679652778338,139.86341857910156,353600
2024-08-08,140.70101663202263,142.356778003838,140.70101663202263,141.7723846435547,268600
2024-08-09,141.62626982744487,141.62626982744487,139.73674845812454,140.20425415039062,263200
2024-08-12,140.22376060481798,140.42828787630694,139.05498875394557,139.5614471435547,221100
2024-08-13,139.77570458987628,141.5191351185175,139.37638454150817,140.6133270263672,212000
2024-08-14,140.37958921087778,141.0418877556547,139.75624328448924,140.1555633544922,115700
2024-08-15,141.22696922822865,143.50607675102486,141.22696922822865,143.18466186523438,277500
2024-08-16,142.30806341467064,143.01906387906809,141.8210739450238,142.90219116210938,250600
2024-08-19,142.51264091252753,143.8859402629572,142.12304032304087,143.14572143554688,191200
2024-08-20,143.1554262192904,144.45082004519588,143.1554262192904,144.2560272216797,387200
2024-08-21,144.3144860611105,145.67806576159592,143.62296920065572,145.44430541992188,267300
2024-08-22,145.67803823477166,146.48642768244193,144.80144826543804,145.11312866210938,200400
2024-08-23,145.7657034384913,146.6130604286141,145.5514268655365,146.52540588378906,221400
2024-08-26,146.75914391028522,148.69736740875544,146.23320180620857,146.252685546875,235500
2024-08-27,146.10657244845748,147.5967590072151,145.9409978154554,147.26560974121094,208300
2024-08-28,147.00264345528416,148.01558993867803,147.00264345528416,147.59677124023438,249000
2024-08-29,148.5805139173331,148.93114698600922,147.27538549682706,148.31753540039062,187100
2024-08-30,148.23959762370004,149.4473369078232,147.69417177336692,149.20384216308594,178500
2024-09-03,148.15194689459446,148.41492538696468,145.83387210929124,146.13580322265625,362400
2024-09-04,145.7072750829975,146.97343598691867,145.7072750829975,146.807861328125,175800
2024-09-05,147.1487592794206,147.81105791158635,146.04815817755215,146.79812622070312,200600
2024-09-06,146.4669590943475,149.13565190287514,146.4669590943475,148.4149169921875,319100
2024-09-09,148.599998351621,149.07723859888472,147.49939721337483,147.95716857910156,241500
2024-09-10,147.91819898327566,148.81425795867298,147.49939511007815,147.56756591796875,158100
2024-09-11,146.86629136229539,146.95396076989897,144.76250795288001,146.9149932861328,178000
2024-09-12,146.963724985921,148.05457696453936,146.06766588037829,148.00588989257812,200400
2024-09-13,148.229880848657,149.02853597846607,147.94741858852652,148.31753540039062,138600
2024-09-16,149.0577202574082,149.18434226671613,148.11297442293682,149.009033203125,182900
2024-09-17,149.99278031830573,151.52193462791402,147.91820009450953,149.0480194091797,259900
2024-09-18,149.75900813476628,151.4440025327287,148.73634205746214,149.08697509765625,214200
2024-09-19,150.98622094035395,154.67759462046783,150.98622094035395,152.81729125976562,412400
2024-09-20,152.2426587848195,152.2426587848195,150.4602753884125,151.8530731201172,663300
2024-09-23,152.1063064527266,152.82705629994214,150.71352354488388,151.9017791748047,315800
2024-09-24,152.11606453542126,152.99265473369493,151.9699735999139,152.5543670654297,246200
2024-09-25,153.20688083707267,153.76204107071635,151.81408331019855,153.05104064941406,284100
2024-09-26,153.8302663844023,154.92111825576467,153.59650604264948,154.25881958007812,371600
2024-09-27,154.5509559871256,157.34628537818782,154.1418866556443,155.72947692871094,354300
2024-09-30,155.14509281013372,156.24569372550278,154.7944598108318,156.0216827392578,289800
2024-10-01,156.3625791144633,156.3625791144633,154.91135994387946,155.8074188232422,192200
2024-10-02,155.70028846125726,155.94378321896212,153.84973424739667,154.61917114257812,186900
2024-10-03,153.87896779578838,156.28469743108852,152.56409002818182,154.8042449951172,367000
2024-10-04,155.77820432469008,157.26839101232096,155.18407653760102,156.40155029296875,350500
2024-10-07,155.2425276346262,155.48602240881075,153.89843172537022,154.5607452392578,223300
2024-10-08,154.16139329533596,154.8821430979149,153.01210522116568,154.54124450683594,205900
2024-10-09,154.22958607287964,155.8853474593437,154.00556019446944,155.54444885253906,152600
2024-10-10,153.93739633476548,155.23279029262568,153.93739633476548,155.0769500732422,168500
2024-10-11,156.75218568056042,157.70668095780067,156.17754162622376,157.3463134765625,194400
2024-10-14,160.696818031185,163.39472945404907,159.2066311881111,162.83956909179688,469700
2024-10-15,162.96615916864047,165.2452662626044,162.1577548858949,164.29075622558594,397300
2024-10-16,164.31027038182938,164.79725992941144,161.60260968621262,161.719482421875,330000
2024-10-17,162.63503769290986,163.94018107601627,162.18701559715464,163.5213623046875,238200
2024-10-18,164.69985199950776,164.69985199950776,163.41419260808226,164.24208068847656,171500
2024-10-21,164.0862524476999,164.1057361900711,161.97271968352462,162.00193786621094,217900
2024-10-22,161.40778308865237,162.04086342343328,160.5214587305683,161.4954376220703,228500
2024-10-23,162.1772771808473,163.60902784621874,161.83639336540975,163.28761291503906,318100
2024-10-24,164.38140383544402,164.39116447584829,162.26216763017436,162.65281677246094,547300
2024-10-25,164.9673259462908,165.8755720020447,160.75818090850115,164.9575653076172,518900
2024-10-28,165.92441114185215,167.3990873642211,164.8110872205768,165.1431427001953,350000
2024-10-29,165.0747671080742,165.52400985615543,163.71729312603756,164.7524871826172,338100
2024-10-30,164.41067173516717,166.21737340703038,164.18604292971634,165.0747528076172,290300
2024-10-31,165.13335357792894,166.29551040666678,163.93213929101648,163.98097229003906,329900
2024-11-01,164.16653293752452,166.98890749293048,163.69775401702358,165.4458770751953,316300
2024-11-04,165.6607525408384,166.57875942258767,164.24466985207027,164.3227996826172,191800
2024-11-05,163.81495853194275,166.37364684373878,163.81495853194275,166.32481384277344,206200
2024-11-06,171.05156441416634,171.05156441416634,168.1120023975292,169.10813903808594,264100
2024-11-07,170.12379617937486,171.35432228905614,169.47923630304092,170.6218719482422,412300
2024-11-08,170.61211414457827,173.67863929419988,170.40703637280367,171.64730834960938,309200
2024-11-11,172.19418764538844,173.86416596467407,171.78400236870633,172.0281524658203,189100
2024-11-12,172.51646680557812,173.09267240733516,170.85624898942092,171.5886993408203,179800
2024-11-13,171.3933563232422,172.26253001280048,170.95388915917127,171.3933563232422,168400
2024-11-14,171.05154146977196,171.67656508355398,169.84056660029717,170.026123046875,198200
2024-11-15,168.92259010604147,169.6940979462343,162.28170370883174,162.59422302246094,620500
2024-11-18,162.49655239968402,163.8930988274997,160.4847578059515,162.78953552246094,384400
2024-11-19,162.52583437609178,163.74658485803732,162.31098109913023,162.99459838867188,287600
2024-11-20,163.0922544076903,164.98686142400987,161.77383800717232,164.78176879882812,221800
2024-11-21,164.74273502870884,166.24669318990152,163.81496756616045,165.90489196777344,205100
2024-11-22,166.1978542572136,168.04364337816776,166.1978542572136,167.49673461914062,241600
2024-11-25,168.0241100492806,169.94801412387145,167.7213662946961,168.4635772705078,270100
2024-11-26,168.81513216055757,168.81513216055757,167.1549145944536,168.01431274414062,140300
2024-11-27,168.62958510670097,169.81127811822287,167.50650063518984,167.71157836914062,167200
2024-11-29,168.5514742252474,169.43042360328997,168.06317398247072,168.91282653808594,117300
2024-12-02,168.9323215272417,169.0592843391612,166.8423974094864,168.71746826171875,170900
2024-12-03,169.39133917889114,169.39133917889114,167.0865616010066,168.36590576171875,160100
2024-12-04,167.86785056164098,168.84445101051938,167.02797357953594,168.5514678955078,173400
2024-12-05,167.98502374389864,168.40496965056505,166.5396593733903,167.09632873535156,245000
2024-12-06,167.58463897320985,168.61005749857284,166.85218865409922,167.14515686035156,209200
2024-12-09,167.54556559711838,169.4108759749143,166.24668525088177,166.7935791015625,301700
2024-12-10,166.7252406375411,167.36002500978458,164.2544425337756,166.91079711914062,287000
2024-12-11,167.8580993317844,170.02615364197325,167.73113649775587,168.2780303955078,418600
2024-12-12,167.65298456324717,168.5612306607672,166.78381082569527,167.62368774414062,178300
2024-12-13,166.9107848371899,166.99867530040407,165.8462939336225,166.21739196777344,153200
2024-12-16,166.15878101655767,166.93028872730167,163.66844717273165,163.70751953125,236100
2024-12-17,162.99458751218418,163.00436305250057,159.02959259568405,159.27374267578125,511900
2024-12-18,159.85973142770067,160.5726455898807,154.214981970008,154.50796508789062,468600
2024-12-19,154.80091960788565,157.78932926379758,154.52747269585277,155.15249633789062,404700
2024-12-20,155.00602554523715,156.04121964416362,153.78527497542004,154.47865295410156,730200
2024-12-23,153.49229809203675,155.1818127767919,153.28722033295332,154.8107147216797,194900
2024-12-24,155.06460748481138,155.6896311333145,154.2247305600973,155.62127685546875,100500
2024-12-26,154.7130496409685,155.89474280440862,154.7130496409685,155.13299560546875,164500
2024-12-27,154.12707581536193,155.84588708263334,153.92198318319998,154.4493408203125,145000
2024-12-30,153.32624728896786,153.80478680118333,151.37304668656063,153.06256103515625,221700
2024-12-31,153.59971586271843,154.54701948074276,152.52544941905987,153.42393493652344,317100
2025-01-02,153.96102932277924,154.41027201167452,149.85931109671645,150.55270385742188,239400
2025-01-03,150.43551553521377,152.07621191768425,149.29289488218893,151.86135864257812,250700
2025-01-06,150.39646609155173,151.02148977014832,147.89637137716537,149.34173583984375,369000
2025-01-07,152.2715539340709,152.40827741317517,149.02924790028047,149.83981323242188,361200
2025-01-08,149.31245742221395,150.65039540651844,148.53117400223823,150.54296875,228600
2025-01-10,149.1463999140004,150.68943018558076,149.0096764672395,149.85931396484375,350800
2025-01-13,149.351489060231,151.08007590647148,149.351489060231,150.28903198242188,349300
2025-01-14,151.18748931990888,151.81251291278505,149.88860913904762,150.99217224121094,196900
2025-01-15,152.4668462198905,153.24812950251066,150.5624784634495,151.91995239257812,206100
2025-01-16,152.24223989964935,153.49228725350105,151.67580986403843,152.7500762939453,346300
2025-01-17,153.29695885699005,154.2540230320317,152.03713605455528,152.4375457763672,231900
2025-01-21,153.0528143054371,156.50997312910235,153.0528143054371,156.0900421142578,270900
2025-01-22,155.6115107453754,156.98852094407073,154.6349103040437,155.34783935546875,280000
2025-01-23,154.7521036088612,156.070505187951,154.03917459835165,155.88494873046875,149800
2025-01-24,155.91424200320077,156.71506145375167,153.54111027377883,154.59584045410156,329600
2025-01-27,154.54699783386062,155.20131824817142,152.98443138953712,154.75209045410156,317000
2025-01-28,153.88294176224863,156.59788985115384,153.88294176224863,154.71304321289062,204300
2025-01-29,155.06462155953,155.10369392333624,152.95516096621085,153.43370056152344,265800
2025-01-30,154.1270963205914,154.96695843542625,152.9161063496536,154.42984008789062,274200
2025-01-31,154.205198107046,155.66033807623802,153.0918742405619,153.47274780273438,834100
2025-02-03,150.9629044447037,153.08212570452554,150.53319784792123,152.33013916015625,364600
2025-02-04,152.43756037769683,154.75211357303183,152.43756037769683,154.0098876953125,302400
2025-02-05,155.01864663986422,156.3702165851502,154.52894911700784,155.05783081054688,262600
2025-02-06,156.5465285972017,156.5465285972017,152.16863076212493,153.22637939453125,446600
2025-02-07,154.37226642227148,154.64649588233073,139.11328743464438,140.22979736328125,1221500
2025-02-10,141.2875312819042,141.62053697254157,137.99676315893876,140.32772827148438,621900
2025-02-11,139.33854663703144,140.1220657147679,137.3699528993658,139.35812377929688,377300
2025-02-12,138.06531924654766,140.53339891858562,137.0467400415367,138.7802734375,423500
2025-02-13,139.80865498326042,140.8174307728779,138.54524183950096,139.8282470703125,665900
2025-02-14,140.72929960574803,142.31591505799216,139.7792850599418,141.80662536621094,512800
2025-02-18,141.806629148029,144.25511722944964,140.93496798881864,143.87315368652344,489600
2025-02-19,143.12881942892955,144.45100897747918,142.60974114853846,144.01026916503906,331000
2025-02-20,143.94170202111488,144.3824268363581,142.91333415595835,143.6576690673828,283100
2025-02-21,144.00044619853725,144.3530289976447,142.2081515484395,143.3246612548828,451900
2025-02-24,143.1679734070286,144.25510260272546,141.38548203557013,142.60972595214844,353300
2025-02-25,142.8741632870377,145.27367831527678,142.7174564829414,144.6664581298828,336700
2025-02-26,143.62828832707837,146.10615678438293,143.59890766903789,143.61849975585938,735600
2025-02-27,143.21693102979327,144.14735331926948,142.3648621360305,142.62930297851562,262800
2025-02-28,143.14840249829248,143.92211811173567,141.64992907469428,143.7262420654297,348700
2025-03-03,143.94169395000412,145.7731579400057,142.68806946190705,143.56951904296875,394100
2025-03-04,142.54117057614394,144.90151659055175,142.14941847460233,142.9329376220703,490100
2025-03-05,143.04065503791688,145.78296426258473,143.04065503791688,145.38140869140625,445100
2025-03-06,144.51952840338762,148.37834721716624,144.02983088781943,148.03555297851562,471700
2025-03-07,147.40875736971992,150.20003950079644,146.10616003817648,149.63198852539062,480200
2025-03-10,148.93662196596816,150.82684736023063,147.14432711634848,147.467529296875,391100
2025-03-11,147.24227347370973,147.4577416172004,144.2355379258109,144.84275817871094,304000
2025-03-12,145.18552675241813,145.18552675241813,142.56074026251753,143.02105712890625,299700
2025-03-13,143.39324790721705,144.16696350239528,140.79784178568258,141.77723693847656,238400
2025-03-14,142.23754924682325,143.86334873443155,141.5617642221919,143.63809204101562,223600
2025-03-17,143.49118010431383,144.95048427871978,142.854579225438,144.7937774658203,225200
2025-03-18,144.35304428256728,144.49015899982857,142.7762175618708,143.28550720214844,219900
2025-03-19,143.32466483055046,144.42159742424096,142.47259593827573,143.95147705078125,279600
2025-03-20,143.1190055816075,144.38241863949617,140.76844845978337,142.20816040039062,332800
2025-03-21,141.0329025919921,142.4628260965788,139.42669513246977,141.8360137939453,601900
2025-03-24,142.74685366750688,145.12677688467917,141.9241652673277,144.94070434570312,463800
2025-03-25,145.43039772394542,146.15514060303397,142.92313347424803,144.17677307128906,325200
2025-03-26,144.0200657855328,145.63606187248132,143.2855193924863,145.4989471435547,630400
2025-03-27,145.2246994062801,146.80152606265366,144.0004555719647,146.2726593017578,312700
2025-03-28,146.2138845778836,146.90926165859608,142.7566211490686,143.9025115966797,239800
2025-03-31,143.55973295769965,146.01800923430915,143.08962750262015,145.32264709472656,372500
2025-04-01,145.8123486528671,146.93864705079392,144.34325598893645,146.02781677246094,240000
2025-04-02,144.950476293581,148.0159877703709,144.950476293581,147.4283447265625,247600
2025-04-03,143.73601082079833,146.95822887417515,143.4422042640377,145.60665893554688,352900
2025-04-04,142.2277708498692,144.91131905351403,137.15449598879215,137.29161071777344,531600
2025-04-07,133.5307294902565,139.19163219073434,128.15385974857273,131.87554931640625,629900
2025-04-08,134.5493112573588,136.43953673434598,128.57499483049722,130.9059600830078,473800
2025-04-09,130.43584131939255,141.44424838924863,128.6141806532637,140.78805541992188,491800
2025-04-10,137.11532993446937,140.4158870228316,134.7354067381973,137.8596649169922,309000
2025-04-11,137.96737957378522,141.7282680233526,136.86067330008663,141.140625,203000
2025-04-14,142.79581425798335,143.38344237476502,140.82722046414764,142.7860107421875,249300
2025-04-15,143.08963340422312,143.5205547049289,140.80764097500608,140.97413635253906,250700
2025-04-16,141.09166473999363,142.81540979066028,139.63237551205373,142.01229858398438,307700
2025-04-17,142.40405194984112,142.75663480933545,137.8107011490633,140.8664093017578,390600
2025-04-21,140.34734719656797,141.0818936596229,138.19268056048412,139.64218139648438,291600
2025-04-22,141.52257641333196,143.79477996918828,140.63132338352375,143.01126098632812,217800
2025-04-23,144.823151790697,146.24328667195422,144.1865509396658,144.99945068359375,537000
2025-04-24,144.88190918887037,148.86805439769142,142.4628170537404,148.3391876220703,424500
2025-04-25,147.74175781185858,149.84745131334506,144.52934305768525,145.98863220214844,220500
2025-04-28,146.71337821983508,147.91802992014826,145.2246935924771,146.6154327392578,235200
2025-04-29,146.67418232302288,148.84844030743994,145.93963611056793,147.20306396484375,359900
2025-04-30,145.99844818091182,146.8994899625974,144.17677252930838,146.8603057861328,556200
2025-05-01,145.8288159699916,147.87209121737254,144.36513448698346,145.6618194580078,445300
2025-05-02,150.28867188742916,150.29848992197137,145.18047592473235,149.31614685058594,431600
2025-05-05,148.75619296258844,150.51459532270206,148.21591630528783,148.80531311035156,267600
2025-05-06,147.59706562017445,149.35545335071032,146.7817189664437,148.25523376464844,312000
2025-05-07,149.19827245283236,150.44583737765655,147.9605105733144,148.7169189453125,318400
2025-05-08,149.10985945249004,151.84078718705774,148.5695827139862,150.6521453857422,302500
2025-05-09,151.19244816342078,151.57556141857108,150.239574043545,150.6128692626953,231600
2025-05-12,153.0392239180569,153.82510139061208,150.98613045039815,152.7740020751953,352500
2025-05-13,153.55003919391905,153.55003919391905,150.49495171985274,150.92718505859375,339400
2025-05-14,150.90755987438112,150.90755987438112,148.30435635067707,149.78768920898438,350100
2025-05-15,149.65998239804614,152.7347062134107,149.65998239804614,152.2140655517578,278100
2025-05-16,152.4400115498671,154.3752288653149,151.86043265563208,154.23770141601562,278600
2025-05-19,153.59915663256362,155.5441916331963,153.5500364832347,155.28878784179688,185400
2025-05-20,157.4303150085624,157.4303150085624,155.12181749431372,155.73086547851562,388100
2025-05-21,154.09034056579173,154.8663850260189,153.07852836340334,153.6875762939453,319800
2025-05-22,153.5991755437167,154.4832783830283,152.81329802579143,153.88404846191406,278900
2025-05-23,152.38107111925262,153.422352504288,151.53625537470865,153.1865997314453,260500
2025-05-27,154.25733338201647,155.642440728808,153.9233403306864,155.3673858642578,352800
2025-05-28,155.36739421063615,156.03538034918074,154.4832763933447,154.6208038330078,364400
2025-05-29,155.04320652313712,155.8683710937722,154.05104543149486,155.5343780517578,232100
2025-05-30,155.44597065814978,155.9764293133438,153.77597547059216,155.60313415527344,335100
2025-06-02,154.75831599595244,156.26131463804512,152.51857506289332,154.1394500732422,349600
2025-06-03,153.4223262867034,154.66008809008275,153.24551173728634,153.50091552734375,397800
2025-06-04,153.72687442684654,153.7563435201819,147.63633532186296,147.7542266845703,831900
2025-06-05,148.90356481639972,150.6324832288513,146.41823804065308,149.79750061035156,482400
2025-06-06,151.64429332994897,151.75235166609104,149.52244371290558,150.60301208496094,264700
2025-06-09,150.0136191980335,150.4753066580511,148.6874500367206,148.9232177734375,388400
2025-06-10,149.47332984142486,150.2984944487939,148.19628081228734,149.8367919921875,323500
2025-06-11,150.29849644880608,150.8780752886444,148.92322208489034,149.23756408691406,380800
2025-06-12,148.73658814675593,151.8899014382214,148.73658814675593,151.6246795654297,337200
2025-06-13,150.2985051515068,151.00579343372206,148.06858195648448,148.49099731445312,361200
2025-06-16,148.5695758002576,150.20025395390124,148.4516844355203,149.01162719726562,346200
2025-06-17,147.9998142251002,148.58921108822153,146.49683048956007,146.81117248535156,379700
2025-06-18,146.4869866848808,148.0685595503163,146.4869866848808,147.05674743652344,383200
2025-06-20,147.63631565892786,148.10785106822402,146.35928181283484,147.64614868164062,570500
2025-06-23,146.85049066616682,151.22191491728302,146.85049066616682,151.07455444335938,356500
2025-06-24,151.84077408220156,151.84077408220156,150.47530283808342,151.1531219482422,246600
2025-06-25,151.14332567950171,151.80149382620556,150.0725751866268,151.2120819091797,264700
2025-06-26,151.80147000378724,152.83293320202972,150.41636270870066,151.75234985351562,658200
2025-06-27,151.92917357890042,153.35356794604172,151.50675828997822,153.06869506835938,643100
2025-06-30,153.27500695161754,153.73670945071478,151.88008141858438,153.66793823242188,315500
2025-07-01,153.66791520781175,156.97842145950187,153.20622776725833,156.20236206054688,338300
2025-07-02,156.2122087454969,157.69554147577566,155.84873159459067,157.4892578125,293500
2025-07-03,157.76431481113727,158.51089020387988,156.99808835850575,158.196533203125,235100
2025-07-07,158.1081326731942,159.50305819756994,157.71520139482857,158.1179656982422,313900
2025-07-08,158.05899691367227,159.70934109650693,157.02754866243734,157.22401428222656,342700
2025-07-09,157.10614887979318,157.1847381385685,155.3084739217681,156.90968322753906,252800
2025-07-10,156.37919368056006,157.52853325880866,155.5343780517578,155.5343780517578,361600
2025-07-11,155.76030371292907,155.76030371292907,153.864388917444,155.11195373535156,292000
2025-07-14,154.36538707594116,156.13360757296107,153.92333569902758,154.77796936035156,276600
2025-07-15,154.95479334988428,155.21019713887813,151.34959626569866,151.43800354003906,254200
2025-07-16,151.2022489800424,152.8624112264187,150.83878682765217,152.2435302734375,261900
2025-07-17,152.00777788286257,153.6482890740105,151.78182817574609,153.27499389648438,397700
2025-07-18,154.08052265083427,154.43416676966828,152.18459265589,153.6188201904297,243100
2025-07-21,153.65812006565358,153.90370586328876,152.49896229571195,152.7052459716797,205900
2025-07-22,153.35357548550758,156.54619042612177,152.48910879729814,156.3595428466797,449900
2025-07-23,157.24368095923748,158.99225063096037,156.33009400189493,158.80560302734375,450500
2025-07-24,158.559320268112,161.82979531304568,157.40675735764995,159.406494140625,431900
2025-07-25,159.63305506440543,160.65753702914088,158.3819926877325,158.5888671875,296300
2025-07-28,158.79573614749467,159.56410142477418,155.80108366056007,156.33302307128906,308500
2025-07-29,156.67779828906407,157.21959813532774,154.8750906357904,156.45123291015625,388200
2025-07-30,156.43152305866946,156.55957390550213,152.60938790987095,154.4514923095703,580700
2025-07-31,153.456563501654,155.0031544025075,152.86550639902828,154.79627990722656,679700
2025-08-01,154.62883281758354,155.7616748420332,138.98567424542853,139.24180603027344,1012300
2025-08-04,140.98538123418317,140.98538123418317,135.03547356824112,137.05490112304688,839000
2025-08-05,137.26176707147744,138.9659752764255,135.63638251685612,138.12864685058594,540800
2025-08-06,138.21731427393004,138.6605996470306,135.4984842918658,136.4737091064453,515300
2025-08-07,137.71491162131494,139.37970798596095,136.83818640949156,138.39462280273438,564000
2025-08-08,138.59162361799454,139.9313399406848,138.48326365692378,138.65072631835938,428700
2025-08-11,139.222090228796,139.5077583171329,137.12385398637957,137.7838592529297,349500
2025-08-12,138.12864188918144,138.9856611656125,137.15340217271373,137.39967346191406,286100
2025-08-13,137.60654859738395,139.33044762978915,137.17310872138614,139.32058715820312,729900
2025-08-14,138.099116779735,138.099116779735,134.40504673975155,136.27670288085938,875800
2025-08-15,136.29640019144338,136.87759690021682,135.8137029921251,136.65103149414062,770500
2025-08-18,136.81848979115895,137.4883555774846,135.30146511966976,135.83340454101562,529500
2025-08-19,136.20773671589527,138.4241784468644,136.20773671589527,137.50804138183594,333100
2025-08-20,137.82326302031893,139.1432734762502,137.18294867232404,139.07431030273438,519200
2025-08-21,138.53254347475354,139.78359091939785,138.14836082862038,138.54238891601562,270400
2025-08-22,139.15312448451428,141.19225798353852,139.08417633944555,139.32058715820312,356500
2025-08-25,138.8674588166062,139.4979127296023,136.88744301904194,137.47848510742188,245800
2025-08-26,136.99581252262666,138.0695518344244,135.95160953453586,137.6262664794922,442900
2025-08-27,137.01548945470773,138.47342629437426,136.95638675089546,137.3602752685547,729100
2025-08-28,138.07938928608468,138.07938928608468,135.35069910089788,136.8184814453125,320800
2025-08-29,137.09431078109077,137.78386744151146,136.28654870208595,137.1928253173828,370700
2025-09-02,135.37040364310914,136.46384879424832,134.13904716800675,134.37547302246094,310600
2025-09-03,134.0503903916783,134.1488898889654,132.43485133034417,133.20321655273438,382300
2025-09-04,134.31638220454172,136.41460360260194,133.02590787820503,136.39491271972656,401800
2025-09-05,136.94654859153968,138.7197049562119,135.5772807659998,136.55250549316406,440800
2025-09-08,136.52295752982062,137.91193130257207,135.62652636886406,136.23728942871094,616100
2025-09-09,136.19786500295976,137.39967006705987,133.08500740809663,135.00592041015625,637100
2025-09-10,134.0996443251541,135.4098093593049,132.83873655402675,134.2178497314453,685100
2025-09-11,134.71038997723537,136.21756900629404,133.84351026282553,135.05517578125,477500
2025-09-12,134.58232620679007,135.00592063066784,133.20321303157323,133.2130584716797,261300
2025-09-15,133.9420357302436,134.13904976383114,132.62202517087903,132.8387451171875,298000
2025-09-16,132.77962562814162,133.40023410540573,132.0999294759084,133.19337463378906,474800
2025-09-17,133.4002434882413,135.02564317844585,132.18859283278562,132.6417236328125,377400
2025-09-18,132.88798558145595,133.48888814617573,132.07037810452255,132.49395751953125,254800
2025-09-19,132.65158018177598,133.0850200863436,131.35126046807318,132.4348602294922,877200
2025-09-22,132.11962230163485,132.92739938115005,130.691251766929,130.74050903320312,402100
2025-09-23,131.0261738005905,131.95215627068484,130.00169183165633,130.0509490966797,319700
2025-09-24,130.03125417731107,131.3217134615017,129.38109429893456,129.53871154785156,353300
2025-09-25,129.53868607860107,130.54347705387977,128.32703565709764,128.86883544921875,388700
2025-09-26,129.37123644965243,130.4548211118124,129.00675974879576,130.31690979003906,274400
2025-09-29,130.4252615354418,130.70108416159653,129.40077964275358,130.29721069335938,540600
2025-09-30,129.74557555443596,131.76498814664785,129.74557555443596,131.66648864746094,310400
2025-10-01,131.34141139667054,132.35604794922318,130.33662028487404,132.1393280029297,310100
2025-10-02,131.66648573117217,132.38559368725765,130.97692912730892,131.19363403320312,398500
2025-10-03,130.49421843532957,131.5876634476025,130.45480661565566,131.2330322265625,402000
2025-10-06,130.90797079558112,131.21334480064905,129.45004891757588,129.9130401611328,447100
2025-10-07,130.13960666531722,130.5336347337186,127.8739076939909,128.64227294921875,438800
2025-10-08,129.2234697553329,130.04109227782575,128.31719317203184,129.64706420898438,361300
2025-10-09,129.73571125193516,130.8587077217144,128.258083526899,128.66197204589844,554200
2025-10-10,128.98706384152214,130.04109723300053,127.95272133239104,128.97720336914062,426000
2025-10-13,129.0363213593292,130.37603789072034,128.21869880410003,128.27780151367188,311400
2025-10-14,128.10047027161394,129.10526136456485,127.11538509101302,127.86405944824219,337400
2025-10-15,127.86405674338184,128.44525338015197,125.95298912845,126.18941497802734,438300
2025-10-16,126.5243419047704,127.56852978216413,125.94313774513942,127.23360443115234,352700
2025-10-17,127.23361106421747,128.15959357922404,126.92823704995098,127.41091918945312,339700
2025-10-20,127.67688307805489,128.1497197271898,126.11060134384137,128.06106567382812,240500
2025-10-21,128.6619859078428,129.80468841247423,127.19420346493476,128.62258911132812,311600
2025-10-22,128.70137488096933,130.13960588126338,128.04136960320932,128.12017822265625,357500
2025-10-23,128.27838836608,130.0482160538345,128.19928781482736,129.29678344726562,378600
2025-10-24,129.27699821696652,129.41542040316887,127.09188897025071,127.42807006835938,489300
2025-10-27,127.68513804202082,128.43657062662018,127.00290900843953,127.32919311523438,521700
2025-10-28,127.2995238954293,127.65546879872885,126.03394536967222,126.65685272216797,413500
2025-10-29,125.84608767724626,126.06361040803851,122.02957306455488,122.9095458984375,651100
2025-10-30,122.642589736187,124.1059121119059,121.653855546966,122.958984375,702600
2025-10-31,113.99117408852003,116.76951495369767,102.06704129042897,114.70306396484375,2758200
2025-11-03,114.78215353846566,114.78215353846566,107.07003104374891,111.84561920166016,1661000
2025-11-04,113.0716415827989,114.69316503673943,111.26225622049985,112.89366912841797,1029100
2025-11-05,113.04197713771558,114.73271162837109,111.49954673475034,114.26800537109375,896900
2025-11-06,113.72420198995826,115.64234871180304,112.517952627641,114.84147644042969,880300
2025-11-07,114.9205721317626,115.60279355716192,113.39792065465342,114.91068267822266,697200
2025-11-10,114.68328006091402,115.45449154553131,112.71570107535919,115.06888580322266,514000
2025-11-11,115.64235215314066,118.16362740289492,115.64235215314066,116.93759155273438,484800
2025-11-12,117.0067994446968,118.32181771681981,116.58165098825971,116.8288345336914,547500
2025-11-13,116.96725913412712,120.50692184487997,116.96725913412712,118.8458480834961,679400
2025-11-14,118.42069332802943,119.33033453666947,117.05624283023447,117.27376556396484,521200
2025-11-17,117.1551218108406,118.14385608312521,116.24548809076526,117.99554443359375,820200
2025-11-18,118.31193671929118,118.75686408712447,116.72995598156568,117.96587371826172,817400
2025-11-19,118.16362983624596,118.16362983624596,116.38390520642318,116.67063903808594,598900
2025-11-20,116.67064242743679,118.26250518606629,116.04774256062495,117.24411010742188,507400
2025-11-21,116.79916971414367,120.86286792776397,116.79916971414367,120.1509780883789,509100
2025-11-24,119.48853689793538,121.02107805788862,119.08315976345784,120.10155487060547,740000
2025-11-25,121.0309595133857,122.68214385066395,121.0309595133857,122.04935455322266,543600
2025-11-26,121.63407548431789,123.11717675407199,121.63407548431789,122.41517639160156,538000
2025-11-28,122.23721179455744,124.65961521692697,122.23721179455744,123.34459686279297,315700
2025-12-01,123.47312464549341,123.55222519221778,121.64396787729149,121.89115142822266,536800
2025-12-02,122.37563109798752,122.46462110038372,119.4390968008952,120.2300796508789,325400
2025-12-03,120.08176229804191,122.86011045381893,120.04221956935034,120.68489074707031,543100
2025-12-04,120.82332005860296,122.6821452414219,120.55636513524256,120.64534759521484,708000
2025-12-05,120.61568357957054,122.11856379579517,119.26112254625717,120.53659057617188,537000
2025-12-08,119.55773823925648,120.72444490270962,117.95599365521366,118.71731567382812,496600
2025-12-09,118.25260671307173,118.49979025868578,114.06037589162156,114.41632080078125,640300
2025-12-10,114.86125658975384,116.47289825316335,113.83297205936897,115.84999084472656,734700
2025-12-11,116.63107937914778,117.33307972013586,115.84009658555017,116.6805191040039,389700
2025-12-12,117.18478420221768,120.26963788871947,116.32459020160839,120.10155487060547,656400
2025-12-15,120.11143594513233,121.08039125301917,119.12270172858626,120.95185852050781,588600
2025-12-16,121.2880193092629,122.45472593627359,118.17350515259987,121.44622039794922,644800
2025-12-17,120.73434038745187,123.19628656831932,118.72721105831677,122.23721313476562,567300
2025-12-18,122.2767604710972,122.72169540087228,120.65523693661119,121.23859405517578,457100
2025-12-19,121.95047437935206,122.92932668285609,119.89391294648267,120.02244567871094,1300400
2025-12-22,120.02244905131522,122.30642273678362,119.70605439556444,121.35723876953125,527800
2025-12-23,121.48577799610219,121.64397155088497,119.95323691666961,120.81343841552734,311700
2025-12-24,121.1496037277725,121.7823930301015,120.38828169146663,121.36712646484375,198000
2025-12-26,120.99141254975284,122.08890816765887,120.34873378036154,121.86149597167969,306000
2025-12-29,121.9010457403063,122.90955134918035,120.9419723175224,121.82194519042969,400200
2025-12-30,121.41656795360201,122.89966931682952,121.04084411378047,121.35723876953125,289800
2025-12-31,120.15097596397585,121.94058998507745,119.98289296138277,120.58602142333984,314300
2026-01-02,120.36850209754444,121.61430932967109,119.4193181494529,121.15949249267578,295100
2026-01-05,120.3882753233874,123.17650539661395,120.3882753233874,121.61430358886719,435700
2026-01-06,120.84309994356978,121.4659997987374,118.75687009500949,119.20179748535156,777200
2026-01-07,119.31056506295083,120.57614374825076,116.28504054694046,119.08316040039062,478500
2026-01-08,118.56900865138992,121.98014631699301,118.17351344536358,121.06062316894531,330000
2026-01-09,120.70467850674399,123.5621198728979,120.09166055886544,122.4547348022461,429100
2026-01-12,122.60303947816963,123.88839694168902,121.59453392415777,123.72030639648438,477300
2026-01-13,123.64121411549613,124.02681984811237,121.15948917361368,122.10867309570312,351900
2026-01-14,122.71179941985773,125.7274416797615,122.71179941985773,125.42092895507812,611700
2026-01-15,125.70766789113175,125.78676843900955,123.11718152395939,123.7005386352539,381000
2026-01-16,122.60303809087354,123.78951608727894,121.85159800331378,123.30503845214844,363400
2026-01-20,123.49290649216461,124.1158063396922,122.0493554255934,122.4250717163086,275100
2026-01-21,122.90955081825824,124.20479780070094,122.50417370291805,123.60166931152344,421000
2026-01-22,123.64121667891544,124.98589581561515,122.66236437418617,123.0677490234375,369700
2026-01-23,122.93921055756546,124.85735737798285,122.4745118058816,124.58051300048828,429500
2026-01-26,124.99577817123766,125.55935637440064,123.69064930373163,124.92656707763672,315400
2026-01-27,123.54233481410213,124.87713201390274,122.77112334791536,123.33470153808594,303100
2026-01-28,122.80078648003611,123.6609879626866,121.8614919932062,122.3064193725586,347800
2026-01-29,122.88978028418853,123.86862507511535,121.20892754069328,122.4547348022461,386000
2026-01-30,121.52532437660433,123.60166469190948,121.27814082612888,123.5423355102539,512700
2026-02-02,122.80078342815366,124.49152553193812,122.80078342815366,123.42369079589844,489100
2026-02-03,122.51406220907022,126.48877049938638,122.29653947125486,123.22594451904297,658700
2026-02-04,124.77433039015442,129.44927260782487,123.77184577350829,128.26812744140625,589400
2026-02-05,126.71975064755804,128.1192596554473,121.05225107397254,123.05722045898438,2144200
2026-02-06,126.58078326238557,134.97782150042084,126.58078326238557,133.31031799316406,1045700
2026-02-09,132.5857587104382,138.531180271334,132.2582131007177,137.43936157226562,1043400
2026-02-10,136.78427392403074,139.88104683101494,136.78427392403074,139.126708984375,622100
2026-02-11,137.99519392074043,139.50388475135443,137.56840169460276,138.9678955078125,584300
2026-02-12,139.11678651599092,140.94308767923593,138.3525134196047,139.46417236328125,572700
2026-02-13,139.46418324151318,141.8661694437224,139.3649366253535,141.51878356933594,471900
2026-02-17,138.2234773285034,142.55102629654255,138.2234773285034,140.59568786621094,614700
2026-02-18,140.41703714664675,142.04482998774162,139.791721402891,140.66517639160156,582000
2026-02-19,140.5956812663536,142.25326464590432,139.98030082414553,142.09445190429688,525500
2026-02-20,142.0547550361601,144.0597244456509,140.94309602664507,143.97039794921875,664500
2026-02-23,142.42200863639354,145.15154037209857,142.06468751245615,144.63540649414062,513500
2026-02-24,144.98279666295065,145.8165408414096,142.77931908758302,143.06715393066406,429800
2026-02-25,141.35004724560304,142.59074350649368,139.38477346379526,141.61802673339844,348900
2026-02-26,142.45176871915783,142.84878541602816,139.95052112226952,140.73463439941406,331300
2026-02-27,140.47658357934912,142.9381205686862,139.9505296087492,142.64036560058594,344600
2026-03-02,141.93563886113196,142.2830398395081,140.56590547180699,141.60809326171875,335000
2026-03-03,139.5931967078321,140.26814325067423,135.90088396317486,138.71974182128906,347300
2026-03-04,138.302888395737,138.47162126788456,134.9976717766612,136.02000427246094,389000
2026-03-05,134.9877396254558,135.32520533966746,133.40957777498073,133.72718811035156,452300
2026-03-06,133.0026313554941,133.0026313554941,130.02496050425168,131.096923828125,398500
2026-03-09,129.99519404049997,132.98278521657096,126.5807954705799,132.75450134277344,545700
2026-03-10,132.3574660154593,133.1316591702968,130.42196798314936,131.14654541015625,503100
2026-03-11,130.8190202738326,132.28800044532838,129.0721101988683,131.03738403320312,563800
2026-03-12,130.29295237048808,131.8016279987067,127.68252279954663,127.90088653564453,620600
2026-03-13,129.18127925269795,129.18127925269795,126.10436183607526,127.69244384765625,660600
2026-03-16,128.5162697582332,130.43191254892886,125.06217580985977,128.0894775390625,370700
2026-03-17,129.00262050471235,130.04480827067758,127.2855013216824,128.53611755371094,276700
2026-03-18,123.45423058912087,125.63786042046195,120.51626292882625,123.29542541503906,910500
2026-03-19,122.0944332187195,123.8909588849741,120.54603921873606,123.04728698730469,518500
2026-03-20,123.33512999241371,123.33512999241371,119.41452545613383,120.15894317626953,1481500
2026-03-23,122.5907105268858,125.39964092902298,122.07457667427936,123.21601867675781,455200
2026-03-24,122.24332284607306,124.28798782763778,121.95548040949986,123.2259521484375,405000
2026-03-25,124.50634549167631,125.62793211237509,122.78921864642815,124.88351440429688,337200
2026-03-26,124.28798636131239,126.3922023143744,123.19617519683187,123.76193237304688,442100
2026-03-27,123.01751427118627,123.28550132328671,120.85373975633635,121.08202362060547,381400
2026-03-30,121.64777727824665,123.01751071469691,120.19864504103799,122.44182586669922,562000
2026-03-31,123.46415851677581,126.01502957768723,122.67010992701152,125.08202362060547,557800
2026-04-01,126.39219982096562,127.68252689973865,125.38972274230011,125.80659484863281,380200
2026-04-02,124.2085781211438,126.14406117582702,123.32520302720033,125.07210540771484,297500
2026-04-06,123.66266876079281,125.25076596450165,123.66266876079281,125.07210540771484,461100
2026-04-07,124.38723692091199,126.22346576757812,123.8711106378232,124.67507934570312,376900
2026-04-08,130.4021481364575,131.68254004802253,127.19617800807119,131.03738403320312,645200
2026-04-09,130.24332882387228,131.45424955756675,126.39220287440348,130.42198181152344,424100
2026-04-10,131.2656579543429,131.71230555728022,129.87608426848973,130.521240234375,407400
2026-04-13,129.82646170678544,131.43439923843442,126.63042687940094,131.126708984375,396300
2026-04-14,130.2532453341348,131.73216065356567,129.99518597737963,130.03488159179688,315500
2026-04-15,129.83638260646234,130.05474636457114,127.64284005257605,128.6850128173828,407100
2026-04-16,125.95547520842267,129.35994576168224,125.95547520842267,127.33512115478516,393800
2026-04-17,128.6849981610624,131.31528307681364,128.6849981610624,129.65771484375,401100
2026-04-20,129.59817078840075,131.00759986778516,128.69494031122633,129.945556640625,403600
2026-04-21,129.72718762909471,131.2656538985368,125.74703979492188,125.74703979492188,310200
2026-04-22,126.33265459801167,126.33265459801167,122.04480863207884,123.62297821044922,458900
2026-04-23,124.44679072012924,126.49146323670142,123.51379231359721,124.01007080078125,440800
2026-04-24,123.48401687155638,123.48401687155638,121.65770810014067,123.1564712524414,440900
2026-04-27,123.11676900112164,125.29047121573323,122.62049050993973,123.8016357421875,359700
2026-04-28,125.18128618602746,125.70734016180099,122.79914797388655,124.8338851928711,354300
2026-04-29,124.20857785922294,124.96292327213307,121.87607050853111,121.9852523803711,448400
2026-04-30,122.51130595027864,125.14158341040145,120.97283963229869,122.75944519042969,764800
2026-05-01,126.26316859263083,127.5237125861033,117.0224658192811,118.13412475585938,989400
2026-05-04,117.79666211505766,120.84381172589876,116.58574139374336,119.7023696899414,739600
2026-05-05,120.00014032911528,122.78922301811379,119.92073395333378,121.1217269897461,628600
2026-05-06,122.74597925597982,125.94466800462597,121.24129756714204,122.19791412353516,917000
2026-05-07,122.5068295340525,126.02439054042098,122.13813047351475,124.66918182373047,749700
2026-05-08,124.78875603965518,125.4165335007669,119.9658058031768,120.56369018554688,794900
2026-05-11,120.79288554794945,120.79288554794945,119.0191585502766,119.53732299804688,706100
2026-05-12,120.02559365453983,120.43415267647454,116.72725880994862,117.6340560913086,696600
2026-05-13,117.58423293808002,118.33159035082205,116.01976505817387,117.46465301513672,679500
2026-05-14,118.31166263789773,119.73662439056804,116.62761485678391,117.57426452636719,531000
2026-05-15,117.49455009110837,117.5045093824967,114.06666843041747,114.26596069335938,447000
2026-05-18,115.19268785792543,116.90662874327987,114.76420263658683,115.40194702148438,433100
2026-05-19,115.48166685737739,115.63113986049136,112.05378509001822,113.20970153808594,575800
2026-05-20,113.66807993613209,115.04321484042606,111.15696237122292,114.85388946533203,562600
2026-05-21,116.08951407739181,116.08951407739181,112.37265332877841,115.1030044555664,345600
2026-05-22,115.39198749681162,116.38846404651633,114.30582410432685,115.82047271728516,405800
2026-05-26,115.79056648170686,116.55785764558959,114.96349676302546,115.96993255615234,344500
2026-05-27,116.52796630163347,117.69384200162881,114.32575411191587,114.89374542236328,464000
2026-05-28,114.40547144179769,115.93007936247552,112.95061657623215,115.58131408691406,510100
2026-05-29,114.65458561775299,116.84683851674723,113.34920381323532,115.44180297851562,559600
2026-06-01,114.28589767180515,114.72434218302038,111.63526640610465,111.9840316772461,706800
2026-06-02,111.5555436879482,112.65167394505289,110.84804626905223,111.78473663330078,452400
2026-06-03,111.29646253608045,113.61824699938008,111.29646253608045,112.13349914550781,372600
2026-06-04,114.54497230632394,115.35212345281656,111.14699134502068,112.15343475341797,337600
2026-06-05,112.69152600064275,114.18624078068318,111.58544405772433,112.96057891845703,466300
2026-06-08,111.86445781905672,112.24311616501637,110.55906839000053,111.54558563232422,422200
2026-06-09,112.88085932662787,115.74074968498803,112.27300803930216,115.49163055419922,444400
2026-06-10,115.74074928767203,116.13934141606836,112.97054577921195,114.26596069335938,496800
2026-06-11,114.70441351982215,116.59772043978674,113.85740999319688,116.16923522949219,395200
2026-06-12,117.48458764205596,118.05257897569324,115.96993901734801,117.30522155761719,342600
2026-06-15,118.28175862932584,120.31457162088154,117.14577601676713,117.66394805908203,576100
2026-06-16,118.08246565966249,120.62348378448296,113.36912845320511,120.22489166259766,474700
2026-06-17,121.19147655168894,121.918900150595,119.03908362900873,119.56721496582031,680500
2026-06-18,120.03556323646836,122.1182031608104,118.69032142639777,119.89605712890625,750600
2026-06-22,119.13873446752551,120.58363003359555,118.46113010611298,119.57718658447266,468400
2026-06-23,119.93591657137902,122.14809569936509,118.6604278207416,120.1850357055664,514100
2026-06-24,121.55021059109053,124.60939323702425,121.34094382937874,123.84210205078125,404900
2026-06-25,125.28699706013307,127.68850153642342,124.45991971828299,125.98452758789062,363500
2026-06-26,125.49625757990486,126.67210019838983,124.3204149614199,125.53611755371094,727400
2026-06-29,125.16742108368359,125.60587320209562,123.48337326752176,124.84854888916016,446600
2026-06-30,124.16097333332938,125.86494727656601,123.5033027809896,124.75885772705078,329300
2026-07-01,124.67914609082169,126.39307933521575,123.66273577346423,124.80868530273438,405600
2026-07-02,125.82508774888942,127.77818082996899,124.96812492977865,126.5325927734375,468400
2026-07-06,125.98452783897301,126.6023460237271,123.74245564919634,125.56600952148438,431400
2026-07-07,126.18381913439254,128.26645901687073,125.71548155556971,127.2400894165039,392700
2026-07-08,126.00445175211411,126.26353777363065,122.60647080352626,123.77234649658203,537700
2026-07-09,124.02146439127118,125.03787467960888,123.34386006655016,124.0114974975586,302100
2026-07-10,124.55956853594634,126.53259544666133,123.93179104742975,125.08769989013672,385200
2026-07-13,125.64571994715708,126.72191640641843,123.96167980892794,124.449951171875,391600
2026-07-14,127.96751666781715,128.95403392567474,127.5091383673285,127.82801055908203,739900
2026-07-15,129.25298235497795,130.3092450844948,127.99741214779503,128.65509033203125,466800
2026-07-16,129.56187796196684,134.6040465870392,129.56187796196684,134.27520751953125,579300
2026-07-17,135.351401437915,136.16850424088722,130.24944675099272,132.1427459716797,530800
2026-07-20,131.9135687694055,131.9135687694055,129.2928306127641,129.4522705078125,422900
2026-07-21,130.07008242817932,130.59821378154385,127.46927803301472,128.45579528808594,328800
2026-07-22,129.35261865201468,130.02025611657908,128.02730301458666,128.71487426757812,309900
2026-07-23,128.39600579528673,129.36258923692642,127.71839385448645,128.54547119140625,382800
2026-07-24,129.13338680160044,132.26232242316664,129.13338680160044,131.8936309814453,335900
2026-07-27,132.72071171310446,133.60757521827134,132.19258036761323,132.9000701904297,411200
2026-07-28,134.9030016293852,137.54365843276426,134.3549364800917,137.32443237304688,593100
2026-07-29,135.52081464440568,136.11870667337666,134.0759266469227,135.75,580000
2026-07-30,136.39999389648438,136.39999389648438,133.11000061035156,133.8699951171875,627000
2026-07-31,137.4600067138672,139.57000732421875,132.1699981689453,133.9600067138672,886500
2026-08-03,137.22999572753906,138.4600067138672,134.52999877929688,136.77000427246094,642500
2026-08-04,137.8699951171875,137.8699951171875,135.33999633789062,136.17999267578125,511900
2026-08-05,136.8699951171875,136.8800048828125,134.8699951171875,136.75,454800
2026-08-06,138.6199951171875,138.69000244140625,134.6699981689453,135.77999877929688,545000
2026-08-07,135.05999755859375,137.67999267578125,134.7100067138672,135.4199981689453,686300
2026-08-10,134.38999938964844,134.52000427246094,132.92999267578125,133.67999267578125,446700
2026-08-11,132.8000030517578,135.0500030517578,132.8000030517578,134.75,343700
2026-08-12,133.50999450683594,134.47000122070312,132.27000427246094,133.14999389648438,315100
2026-08-13,134.44000244140625,134.44000244140625,132.08999633789062,132.57000732421875,490800
2026-08-14,132.08999633789062,132.75,129.55999755859375,132.10000610351562,381600
2026-08-17,133.16000366210938,133.16000366210938,130.22000122070312,131.74000549316406,374500
2026-08-18,132.75,133.47000122070312,131.22000122070312,131.72999572753906,500100
2026-08-19,133.0500030517578,134.3800048828125,132.2899932861328,132.92999267578125,390400
2026-08-20,131.4499969482422,133.8300018310547,130.89999389648438,132.9600067138672,420900
2026-08-21,134.0399932861328,135.1300048828125,133.10000610351562,134.8000030517578,400500
2026-08-24,135.36000061035156,136.33999633789062,134.38999938964844,134.75,282300
2026-08-25,135.58999633789062,135.58999633789062,133.22000122070312,134.72000122070312,280900
2026-08-26,135.0,136.63999938964844,134.88999938964844,135.24000549316406,281376
