Date,Open,High,Low,Close,Volume
2023-08-28,122.76581404817435,124.64150083437637,122.76581404817435,124.47798156738281,331900
2023-08-29,124.85313882363003,126.93082164908694,124.46837459081131,126.79615783691406,472400
2023-08-30,127.32516182662812,128.18124190891766,126.68069836488225,127.82534790039062,298900
2023-08-31,128.20048010847904,128.63332693726338,127.20012266690522,127.50791931152344,305800
2023-09-01,128.02734781293066,128.69103845879502,127.46945079751787,127.49830627441406,252000
2023-09-05,126.6614695743854,126.95003905741997,122.50611892134997,122.70811462402344,325300
2023-09-06,122.91972673122726,123.13133602720143,121.39032026937542,121.59232330322266,291100
2023-09-07,121.47690834793558,122.32336764736493,120.37073502505612,120.58235168457031,328600
2023-09-08,120.72661517649743,121.84240190476012,120.35147928747043,120.53423309326172,238800
2023-09-11,122.15019934654015,123.05437674267795,121.59230968164995,122.16944122314453,333500
2023-09-12,121.30374940797992,122.43877803875952,120.64004404886371,121.7077407836914,258000
2023-09-13,120.98632753897883,121.76545483171917,120.34186404156085,120.59195709228516,279300
2023-09-14,121.20756165253754,122.44839859285891,121.20756165253754,121.9289779663086,217900
2023-09-15,121.6692627655092,122.35220265507273,120.39957035952995,121.13060760498047,589200
2023-09-18,121.54421485235763,121.54421485235763,120.15909325311112,120.85165405273438,175100
2023-09-19,120.89975538209652,120.89975538209652,119.33187259288644,120.53423309326172,218600
2023-09-20,121.04403393623863,121.29412697753905,119.81281794618458,119.8801498413086,206200
2023-09-21,119.5915970075996,119.61083154828877,117.5331562384029,117.56201171875,335700
2023-09-22,117.66780374067143,118.21607980720373,117.45618712926849,118.00446319580078,341200
2023-09-25,117.34076318501396,119.3992037620622,116.84058444889169,119.31263732910156,258800
2023-09-26,118.82208002776298,119.48578541206082,118.53351789357484,118.88941192626953,547000
2023-09-27,119.3126479723948,119.70701843321653,118.1872402117581,118.81246185302734,362400
2023-09-28,119.13949993050126,120.85166013877925,118.5623683479597,120.68814086914062,219300
2023-09-29,121.66926377216642,121.99630964992629,120.03405639924574,120.27452850341797,330900
2023-10-02,119.7839706824147,120.69776913733538,119.26455002499831,120.2841567993164,244100
2023-10-03,119.29340648562564,120.53424350988173,117.82171828016256,118.18724060058594,236300
2023-10-04,118.84132265546667,119.90901943753225,117.66781755527735,119.49540710449219,208200
2023-10-05,119.23569473519102,120.16872773211533,118.11990791789228,119.03369903564453,466700
2023-10-06,118.8990326896935,121.86165089685026,118.6874160550928,121.59232330322266,491700
2023-10-09,121.02480176411956,122.3714470315645,120.89975891033677,122.10211944580078,275700
2023-10-10,122.3906880798059,123.70847793865926,121.68851359938441,121.71736907958984,322000
2023-10-11,122.66962432861328,122.83314359247812,121.82316519334888,122.66962432861328,212900
2023-10-12,122.37143953710256,122.54457973715071,120.29375713652479,120.6400375366211,189300
2023-10-13,121.19793811935457,121.842401584592,120.6208065484162,121.16908264160156,324900
2023-10-16,122.50611887985671,122.57345078072507,121.36146922646793,121.88088989257812,275200
2023-10-17,121.2075666764976,123.44876120681954,121.2075666764976,122.62154388427734,314400
2023-10-18,122.03478544306672,122.80429176930639,121.46726746403726,121.94821166992188,287300
2023-10-19,121.27491484788762,122.61193939714258,120.61120937429072,120.9382553100586,443900
2023-10-20,121.13061711466817,121.65965871645427,117.2830631776834,117.56201171875,446500
2023-10-23,117.08106243237853,118.46618413837787,116.59049727173269,116.86944580078125,379000
2023-10-24,117.47542865086069,119.05292505320921,117.08105821958665,118.63931274414062,312100
2023-10-25,118.15676512830933,119.45964393442463,117.63561213324283,118.09886169433594,431300
2023-10-26,117.02759913247053,121.01344487283436,117.02759913247053,119.12185668945312,576000
2023-10-27,119.16047518784606,119.51755620789429,116.15902425320523,116.94075012207031,364000
2023-10-30,117.66457150071054,118.0506115995379,116.63191847013125,117.90584564208984,283100
2023-10-31,118.23397832287583,118.60071235470951,117.577712385893,118.00234985351562,422900
2023-11-01,117.84794906764095,119.12187631379118,117.36540075677947,118.63932800292969,360500
2023-11-02,119.40175264455395,119.95185741255717,118.68758322153812,119.26663970947266,384300
2023-11-03,120.08696643881918,121.57321603943892,120.08696643881918,120.974853515625,278000
2023-11-06,120.89762142669709,121.3415722452264,120.39577454411337,120.82041931152344,173500
2023-11-07,120.27033814314946,120.62741916445184,119.8360402653971,120.2027816772461,205000
2023-11-08,120.52125543592591,121.10996492498091,120.06766623895945,120.75288391113281,175800
2023-11-09,121.30297581014376,121.30297581014376,119.73951690200494,120.04834747314453,118600
2023-11-10,119.90359356052024,121.3994961613825,119.5658112399359,121.33193969726562,195600
2023-11-13,121.01345529818798,121.1003178161299,120.02906006116073,120.1834716796875,183100
2023-11-14,121.55391115797988,123.39724915782807,120.936249936579,123.3875961303711,267400
2023-11-15,123.35865603473404,124.30445401086837,122.90505942184835,123.25249481201172,388600
2023-11-16,123.19457641995044,124.13071389102679,122.41284320538445,123.09806823730469,217000
2023-11-17,124.07281379686883,124.57466814111162,123.15597499237893,123.46480560302734,162700
2023-11-20,123.00155853990697,123.19458227747852,122.01716324915157,122.8760986328125,213900
2023-11-21,123.0112053695368,123.82189030028484,122.76027820488832,123.44550323486328,160600
2023-11-22,123.96666739657351,124.69048991705901,122.91471553442426,124.08248901367188,174800
2023-11-24,124.46850623760841,124.46850623760841,123.6288769312162,124.04386138916016,65900
2023-11-27,123.3586396115106,123.82188919108859,122.42249478837549,122.5672607421875,367500
2023-11-28,122.56726027052797,122.57691329757223,121.10996243713889,121.22577667236328,218000
2023-11-29,121.25473635567784,121.98821183407688,120.55986562488955,120.9941635131836,331800
2023-11-30,121.07137144789151,122.69273410973697,120.45371018272209,122.46111297607422,301000
2023-12-01,122.00752090603291,124.05352116174625,122.00752090603291,123.62889099121094,218300
2023-12-04,123.00155352374544,124.38164926101614,122.46110180679085,123.93769836425781,192000
2023-12-05,123.77364210066986,124.1982869716721,121.48636044972991,121.59252166748047,178000
2023-12-06,121.9785653558879,122.85680684420771,121.48636400130093,121.95926666259766,179500
2023-12-07,121.83379907959785,122.67343581612694,121.5925249170082,122.0750732421875,254000
2023-12-08,121.94960678177719,123.04981631507553,121.23543736051924,122.8760986328125,265800
2023-12-11,122.81819302140134,123.22353181848027,121.93029857047753,123.11737060546875,338000
2023-12-12,123.19458223267412,123.62888011972512,122.25843735432503,123.030517578125,210300
2023-12-13,122.74098611390058,124.48781597010334,122.74098611390058,124.10176849365234,425000
2023-12-14,124.57467068526118,125.47220345317041,122.45145375097674,122.95330810546875,412900
2023-12-15,122.72167704235878,124.09211233389199,121.57320982713335,121.5828628540039,713000
2023-12-18,122.28739523266056,122.76994355606138,121.48636324867049,122.61553192138672,240500
2023-12-19,123.25248124676398,123.65782739941075,121.63111872548421,121.82414245605469,659100
2023-12-20,121.62145477599356,122.5093491306757,121.08100310513626,121.18716430664062,346400
2023-12-21,121.83378081634912,121.83378081634912,120.49229726249135,121.51530456542969,421900
2023-12-22,121.98821446560005,122.60587571449095,121.71798858959814,121.86274719238281,312200
2023-12-26,121.73726500519032,122.44178864993196,121.20645901510406,121.4380874633789,274700
2023-12-27,121.71797248147908,122.05575478177946,120.66601347414141,120.90728759765625,283100
2023-12-28,120.61776308128793,121.40914191198428,120.05800534752414,120.830078125,343600
2023-12-29,120.82043808829643,120.98450273280184,119.24732601714967,119.30523681640625,313500
2024-01-02,118.3304763924489,119.76846804211776,118.02164582279315,118.59104919433594,313100
2024-01-03,120.78183530676975,122.8181896264616,118.8516421971549,120.98450469970703,531700
2024-01-04,120.81077670302624,121.52494603089515,119.79742246182032,119.88428497314453,353300
2024-01-05,119.45964384127878,120.02905460628045,118.69721672111496,119.86498260498047,423000
2024-01-08,119.7395169074447,120.79147587247215,118.09885587877267,120.0097427368164,352400
2024-01-09,119.39208886536294,120.28962891792202,118.67791950665958,120.27997589111328,250300
2024-01-10,120.11589570769318,121.04238735768698,119.89392766152964,120.82041931152344,279600
2024-01-11,121.0038017297732,122.53830905966294,120.57916425839741,122.412841796875,323100
2024-01-12,123.4261986038641,123.50340809589281,121.52495720049569,122.01715850830078,231700
2024-01-16,121.48634817990717,122.39354127156845,121.12926717726768,122.3838882446289,257500
2024-01-17,121.54425926799404,122.82783205612957,121.4960014962835,122.26808166503906,336900
2024-01-18,122.87610796985773,125.47221301031782,121.9013582695851,124.63258361816406,444200
2024-01-19,125.18269023740162,126.87160933829033,124.0535142223177,126.2346420288086,418000
2024-01-22,126.33112908123387,127.20937045222468,126.00299979741455,126.61101531982422,266200
2024-01-23,127.19970886950027,127.24796663489413,125.78101597889527,127.2286605834961,217800
2024-01-24,127.50854252440655,127.6726071592471,125.98368831528413,126.21531677246094,294400
2024-01-25,127.42170423136226,127.75949393532106,125.82930071545499,126.66893005371094,332300
2024-01-26,127.08392727992882,127.96216881738636,126.81370138012758,127.10323333740234,219900
2024-01-29,126.47591259694148,127.96215488401634,125.93546085618699,127.63402557373047,187800
2024-01-30,127.42170314326185,128.4447031848622,127.03567039306735,127.63402557373047,228400
2024-01-31,128.14711126677335,128.53435928082044,125.03952535355248,125.73655700683594,537500
2024-02-01,126.29805168978267,126.9273093818835,125.47516261057311,126.3367691040039,298800
2024-02-02,125.81399083086278,126.54006414764015,124.58450254495992,125.94952392578125,344800
2024-02-05,125.01047371963757,127.25645293560962,123.96492632234019,126.48197174072266,319500
2024-02-06,126.31741327577761,127.20806159525097,125.17506481341027,126.94668579101562,369700
2024-02-07,127.21774119888832,128.19551470320488,125.24281332521821,127.59529876708984,393000
2024-02-08,127.44039987265825,130.53831002584943,127.3435841792457,127.90508270263672,620700
2024-02-09,127.8954242006926,134.76892573911803,127.31455950628941,134.5269012451172,650900
2024-02-12,134.72049474500278,135.98870051220734,133.12312449577541,133.21994018554688,491300
2024-02-13,132.3293155563288,132.94889767408426,130.67386150701182,131.5935516357422,275900
2024-02-14,131.91303358615116,133.07476305152232,130.85781026804267,132.79400634765625,335000
2024-02-15,132.7939558437664,133.41353776272464,130.2769107607478,130.73190307617188,471400
2024-02-16,131.05139603090558,133.5974980024858,130.7319219804335,133.1134490966797,453900
2024-02-20,132.76492924425213,135.66922259050702,132.580988302136,135.23358154296875,373000
2024-02-21,134.64302804827457,135.6401674838853,134.5559028017451,135.53367614746094,276300
2024-02-22,135.9887045298492,137.87649236016304,135.60147130332354,136.95680236816406,295700
2024-02-23,137.44085155268917,137.51830115254398,136.11456223867728,136.85031127929688,190300
2024-02-26,136.9858566979064,137.52798917361454,136.30819110327124,137.3924560546875,199200
2024-02-27,137.39245476737844,137.64415490816972,135.34009190799827,135.8338165283203,244600
2024-02-28,135.19485448974754,136.73414124839545,134.88507086916457,135.9306182861328,189600
2024-02-29,136.1436245676808,137.11172255417472,135.36914322408506,135.9790496826172,250600
2024-03-01,135.41751376903366,136.2984714673089,135.1077154081465,135.81442260742188,151400
2024-03-04,136.20169440578695,137.5860672968912,136.07583695314057,137.43118286132812,260300
2024-03-05,137.73130314278708,138.64131760349056,137.2182123974122,137.97332763671875,190200
2024-03-06,138.37021994084103,139.05757592063267,137.93457885855102,138.50576782226562,184000
2024-03-07,139.8901458387967,140.5097279007667,139.25119768276474,140.0353546142578,250100
2024-03-08,140.09342907633237,140.44194485018238,138.40893370739082,138.5251007080078,185200
2024-03-11,138.23468763130884,138.8058765983286,137.45053072424915,138.18629455566406,226700
2024-03-12,138.24439416826982,138.2928020215548,136.9664977471601,137.86683654785156,242200
2024-03-13,138.43800441506068,138.43800441506068,136.43403460324666,136.65670776367188,336800
2024-03-14,136.8503260525416,137.10202620024066,135.88222810784958,136.4340362548828,235200
2024-03-15,135.5724352312238,137.86683749913811,135.2820176535157,136.50181579589844,599500
2024-03-18,136.43404366008966,136.79224996402957,134.49784766561507,134.81732177734375,299700
2024-03-19,134.44943456936542,135.84349784138894,134.44943456936542,135.059326171875,253000
2024-03-20,135.17551943672254,135.6014848917867,134.70114613049162,135.50466918945312,220000
2024-03-21,135.8338212875163,137.08267591797204,134.85604767387457,136.63734436035156,255800
2024-03-22,137.4795668432542,137.90553224987627,136.5502012033519,137.07296752929688,276000
2024-03-25,136.69538490177803,139.45446910654107,136.66634315410667,138.3992462158203,316300
2024-03-26,138.27341558365592,139.70619624368913,138.0701085385698,138.63160705566406,314200
2024-03-27,139.08660656444317,140.5193871456138,139.08660656444317,140.04502868652344,218200
2024-03-28,140.1999450522203,140.71303575776633,139.06725750918295,139.2996063232422,247800
2024-04-01,139.20278768938965,139.20278768938965,137.58606600215256,137.75064086914062,204400
2024-04-02,137.3149905478121,137.3149905478121,135.91125167032422,136.1436004638672,202600
2024-04-03,136.18232831953642,136.6857433581489,135.40784705367142,136.38563537597656,258700
2024-04-04,137.30530909164867,138.19595727130007,136.47274441493107,137.2278594970703,403600
2024-04-05,136.86968595043953,138.20565100866335,136.45339617162944,137.20851135253906,288300
2024-04-08,137.15041706598697,137.83777302127123,135.91125303201014,136.0274200439453,312500
2024-04-09,135.9403078901939,136.59862215595857,134.91412646050384,135.8338165283203,242600
2024-04-10,134.5462509693493,135.74669776324401,134.0331602299272,134.95285034179688,200700
2024-04-11,134.81729469576712,135.57240980016735,134.0331378390438,134.6914520263672,265300
2024-04-12,133.76206933999157,134.5171844314302,131.62258150491544,132.82301330566406,299200
2024-04-15,134.18807671589846,135.34979146837313,133.4329613881897,133.79115295410156,319600
2024-04-16,133.3941894593336,134.94315184926018,132.9779144955909,134.16867065429688,281700
2024-04-17,134.44943883100882,135.03028869809586,133.93634813434798,133.9847412109375,565400
2024-04-18,133.97507218918878,134.99157797196605,133.81049731342517,134.67210388183594,246600
2024-04-19,134.6237243532463,135.45628934062026,134.34298239364583,134.89479064941406,276600
2024-04-22,135.09805115725143,136.64699877649178,134.80761886239384,135.84349060058594,298800
2024-04-23,135.31104215956182,136.65669759538656,135.06901769432713,135.6789093017578,417200
2024-04-24,135.88280137491373,136.80518972389316,135.58181289617383,135.94105529785156,559200
2024-04-25,135.7760094089554,137.14503597865468,134.8827479436081,136.1061248779297,694400
2024-04-26,137.87324676430742,144.194050138077,137.7761470024205,139.1645965576172,489500
2024-04-29,140.68896186966708,143.71829961506626,140.17436572617285,142.12596130371094,676700
2024-04-30,141.50455876401378,141.85409715843193,139.87337465161463,140.18408203125,585100
2024-05-01,140.77634869572992,142.9318328954004,140.37826043918207,141.15501403808594,359600
2024-05-02,141.5239675984383,142.46577897675033,141.06762539181938,141.6793212890625,356500
2024-05-03,142.8347262098354,142.85414912308485,140.63069223929037,142.54344177246094,303300
2024-05-06,143.46583362092616,144.74747925029178,142.88327954740367,144.70863342285156,260200
2024-05-07,144.00958866873592,146.00971937546657,144.00958866873592,145.368896484375,392900
2024-05-08,145.36890993029817,146.48548325246907,145.1358793623441,146.40780639648438,223500
2024-05-09,146.6116974972741,147.32047837661355,144.31057824435283,144.74749755859375,299100
2024-05-10,144.62126017257594,144.6698100517693,143.78625262261644,144.1746368408203,186300
2024-05-13,144.21346995257653,145.13585840929454,142.59200470826642,143.57264709472656,167500
2024-05-14,143.99014505242278,143.99984910137368,143.18426452924012,143.6017608642578,137600
2024-05-15,143.6600474298775,144.02899393523714,142.50462840164852,142.9998016357422,211100
2024-05-16,143.08720053531704,143.6017967498071,142.1745159842303,143.25225830078125,235500
2024-05-17,143.55324035133813,143.8639329180127,142.85416355714113,143.3784637451172,169500
2024-05-20,143.30077614301211,144.09695263816212,142.7667571298435,143.86392211914062,163400
2024-05-21,143.64062450269293,144.35910941304445,142.81532096392596,144.271728515625,280400
2024-05-22,143.7668498771203,144.5047576961729,143.18428093579104,144.46591186523438,283300
2024-05-23,144.33970165023453,144.62126725880347,143.27166351702041,143.42701721191406,171700
2024-05-24,144.1648896439771,144.50472391620215,143.0774436774011,143.78622436523438,162300
2024-05-28,143.32992330845792,143.48527700970283,141.58224602315815,142.44638061523438,318400
2024-05-29,141.41714913451602,142.43663725250155,140.3102801303625,140.6306915283203,229700
2024-05-30,140.91228668269574,142.70851373087208,140.78605995699684,141.89292907714844,328100
2024-05-31,141.8443808876884,143.5338189608347,141.6793231449918,143.39788818359375,358900
2024-06-03,144.18431769135844,144.18431769135844,142.02883377700786,143.8542022705078,266200
2024-06-04,143.3590315880983,144.07753125118836,142.43664318212836,143.8833465576172,287900
2024-06-05,143.42704632873537,143.8930926926836,142.80564623835542,143.62123107910156,229200
2024-06-06,143.7085664873753,143.7085664873753,141.17441703689698,141.71815490722656,197600
2024-06-07,141.53369124615435,142.07741436636817,141.22298385440706,141.32008361816406,179100
2024-06-10,140.62099421122554,141.57250958640344,139.80540960393014,141.35890197753906,125800
2024-06-11,140.69869527654703,141.504575973223,140.15497211140303,141.27154541015625,147700
2024-06-12,141.9900224631697,142.05798044025738,139.88308812796836,141.59193420410156,221300
2024-06-13,141.6501881317032,142.27158805169188,140.805476550794,141.59193420410156,232400
2024-06-14,140.8734351702916,141.15501557544053,139.50440860403918,140.54331970214844,141500
2024-06-17,140.6598313540665,142.41722736375868,140.3685617068692,142.07740783691406,303800
2024-06-18,142.22303735719075,143.39787921333664,142.2133333077604,142.42694091796875,219900
2024-06-20,142.3977978909361,143.24250937170754,141.436563753432,141.57249450683594,199900
2024-06-21,141.63076047927734,142.86385622851674,141.0870374193948,142.58229064941406,444100
2024-06-24,142.9415237902204,143.92216604419272,142.4075048141597,142.4560546875,182900
2024-06-25,142.52401968431698,142.53373854866894,140.30057760299235,140.65011596679688,194500
2024-06-26,140.05788488942503,140.58218518412346,138.8053806871559,139.53358459472656,192400
2024-06-27,139.68887329101562,139.69859215477817,138.1353810691403,139.68887329101562,377300
2024-06-28,139.60152272147332,140.1258377569006,136.01875763564942,136.71783447265625,435100
2024-07-01,137.27127014880173,137.36835509564582,134.36815911737452,134.5137939453125,306400
2024-07-02,134.4555328904598,136.41683242305885,133.75645612270853,136.31973266601562,259400
2024-07-03,136.78577507852356,137.29065226337735,136.48478661419202,137.1158905029297,143300
2024-07-05,136.89258674062816,137.32950598220694,135.66919508579755,136.80519104003906,207000
2024-07-08,137.53339169445843,138.35869510013967,137.38775688891062,137.3974609375,249300
2024-07-09,136.76637614080624,137.1644644187289,135.6886339831031,135.97019958496094,238400
2024-07-10,136.65956823532298,137.51399869592782,136.48480644947725,137.18386840820312,142000
2024-07-11,137.09646742302462,139.13544351779265,136.6595482071003,137.96060180664062,244500
2024-07-12,139.24228498373407,141.26183871311542,139.24228498373407,140.3879852294922,263900
2024-07-15,140.55302268784044,141.45600300897715,138.98010738595784,139.2616729736328,319900
2024-07-16,139.66949821673376,141.07735596844665,139.66949821673376,140.35885620117188,178800
2024-07-17,140.145223926781,141.53367333298914,140.145223926781,140.65011596679688,242300
2024-07-18,140.40741934435977,142.97069643312764,140.39771529272758,142.0288848876953,434200
2024-07-19,142.3298497313873,142.3298497313873,140.45594581987174,141.69874572753906,251200
2024-07-22,141.747306657231,143.27167228757753,141.02880688587183,142.9124298095703,235700
2024-07-23,143.57265645199828,144.1940564353192,141.43659493529168,141.79583740234375,234500
2024-07-24,141.82495301591825,142.3686760490821,139.71800403939616,139.95103454589844,250600
2024-07-25,139.11344762204345,140.301703406818,137.5453405527421,137.80831909179688,558100
2024-07-26,139.40560564885226,147.35326223129871,138.64590329069,142.84375,562800
2024-07-29,142.76583084099468,144.48977767817135,141.39251700694314,143.95408630371094,390900
2024-07-30,143.5450338076538,144.05149220142636,141.62629393482098,141.9574432373047,411000
2024-07-31,142.6879506951532,144.9768077260866,141.62631694963213,143.15545654296875,280600
2024-08-01,143.05802593063436,145.64879851592252,141.64574463285857,143.20411682128906,335300
2024-08-02,142.76582743375832,143.17489678401833,140.00946539253493,141.89898681640625,213500
2024-08-05,139.6977746333487,139.6977746333487,135.8505612773159,137.0193328857422,448500
2024-08-06,137.65245225788104,142.28858689391723,137.4381756914255,141.1587677001953,476000
2024-08-07,142.21068163315522,143.42815549610452,139.7367812828085,139.8634033203125,353600
2024-08-08,140.7010014885436,142.35676268215138,140.7010014885436,141.77236938476562,268600
2024-08-09,141.62628524099554,141.62628524099554,139.73676366603377,140.2042694091797,263200
2024-08-12,140.2237299424133,140.42825716917875,139.05495834711354,139.56141662597656,221100
2024-08-13,139.7757349256636,141.51916583268488,139.37641479063032,140.6133575439453,212000
2024-08-14,140.37961977723546,141.04191846622177,139.7562737151191,140.1555938720703,115700
2024-08-15,141.22696922822865,143.50607675102486,141.22696922822865,143.18466186523438,277500
2024-08-16,142.30806341467064,143.01906387906809,141.8210739450238,142.90219116210938,250600
2024-08-19,142.51264091252753,143.8859402629572,142.12304032304087,143.14572143554688,191200
2024-08-20,143.1554262192904,144.45082004519588,143.1554262192904,144.2560272216797,387200
2024-08-21,144.31447092085256,145.6780504782827,143.6229541329459,145.4442901611328,267300
2024-08-22,145.67803823477166,146.48642768244193,144.80144826543804,145.11312866210938,200400
2024-08-23,145.76573379784242,146.61309096444847,145.55145718025918,146.5254364013672,221400
2024-08-26,146.75915922191393,148.6973829226023,146.23321706296485,146.25270080566406,235500
2024-08-27,146.10658758715397,147.59677430031587,145.94101293699603,147.265625,208300
2024-08-28,147.00265865265132,148.01560524076524,147.00265865265132,147.59678649902344,249000
2024-08-29,148.58049863148904,148.9311316640923,147.27537034525355,148.31752014160156,187100
2024-08-30,148.23959762370004,149.4473369078232,147.69417177336692,149.20384216308594,178500
2024-09-03,148.15194689459446,148.41492538696468,145.83387210929124,146.13580322265625,362400
2024-09-04,145.7072750829975,146.97343598691867,145.7072750829975,146.807861328125,175800
2024-09-05,147.1487592794206,147.81105791158635,146.04815817755215,146.79812622070312,200600
2024-09-06,146.4669892113799,149.1356825686532,146.4669892113799,148.41494750976562,319100
2024-09-09,148.599998351621,149.07723859888472,147.49939721337483,147.95716857910156,241500
2024-09-10,147.9181836882304,148.8142425709734,147.4993798583381,147.5675506591797,158100
2024-09-11,146.8663066160262,146.95397603273526,144.76252298810905,146.91500854492188,178000
2024-09-12,146.963724985921,148.05457696453936,146.06766588037829,148.00588989257812,200400
2024-09-13,148.22986559888577,149.02852064652984,147.9474033678148,148.31752014160156,138600
2024-09-16,149.0577507849576,149.18437282019818,148.11300475699895,149.00906372070312,182900
2024-09-17,149.9927649627968,151.5219191158579,147.9181849513857,149.04800415039062,259900
2024-09-18,149.75902346233676,151.44401803275537,148.73635728036453,149.0869903564453,214200
2024-09-19,150.98623601631084,154.677610065008,150.98623601631084,152.8173065185547,412400
2024-09-20,152.2426587848195,152.2426587848195,150.4602753884125,151.8530731201172,663300
2024-09-23,152.10629117339244,152.8270409482074,150.7135084054571,151.90176391601562,315800
2024-09-24,152.1160493204721,152.99263943106746,151.96995839957702,152.55435180664062,246200
2024-09-25,153.2068961113986,153.7620564003903,151.8140984456662,153.05105590820312,284100
2024-09-26,153.83025116800434,154.92110293146314,153.59649084937433,154.25880432128906,371600
2024-09-27,154.5509862737545,157.34631621260434,154.14191686210978,155.72950744628906,354300
2024-09-30,155.14512315625234,156.2457242868971,154.7944900883672,156.02171325683594,289800
2024-10-01,156.36259442762125,156.36259442762125,154.9113751149142,155.80743408203125,192200
2024-10-02,155.70027309577677,155.94376782945204,153.84971906454047,154.61915588378906,186900
2024-10-03,153.8789526282023,156.2846820263738,152.564074990201,154.80422973632812,367000
2024-10-04,155.7782195226645,157.2684063556804,155.18409167761138,156.4015655517578,350500
2024-10-07,155.2425276346262,155.48602240881075,153.89843172537022,154.5607452392578,223300
2024-10-08,154.16140851662,154.88215839036292,153.0121203289736,154.541259765625,205900
2024-10-09,154.2296012026817,155.88536275157466,154.00557530229472,155.54446411132812,152600
2024-10-10,153.93739633476548,155.23279029262568,153.93739633476548,155.0769500732422,168500
2024-10-11,156.75218568056042,157.70668095780067,156.17754162622376,157.3463134765625,194400
2024-10-14,160.69678791517742,163.39469883242896,159.2066013513777,162.83953857421875,469700
2024-10-15,162.9661894401701,165.24529695748606,162.15778500726063,164.29078674316406,397300
2024-10-16,164.31027038182938,164.79725992941144,161.60260968621262,161.719482421875,330000
2024-10-17,162.63500734074424,163.94015048027507,162.18698532860228,163.52133178710938,238200
2024-10-18,164.69986730082573,164.69986730082573,163.414207789957,164.24209594726562,171500
2024-10-21,164.0862524476999,164.1057361900711,161.97271968352462,162.00193786621094,217900
2024-10-22,161.4078288401736,162.04090935440306,160.52150423085823,161.4954833984375,228500
2024-10-23,162.17724687078498,163.6089972685699,161.83636311905678,163.28758239746094,318100
2024-10-24,164.38138841449273,164.3911490539813,162.26215240803288,162.65280151367188,547300
2024-10-25,164.96734120598276,165.87558734575057,160.75819577884172,164.95758056640625,518900
2024-10-28,165.92439581087592,167.3990718969887,164.81107199246878,165.14312744140625,350000
2024-10-29,165.07478239671167,165.52402518640017,163.71730828895062,164.75250244140625,338100
2024-10-30,164.41068693257148,166.2173887714383,164.18605810635694,165.07476806640625,290300
2024-10-31,165.13335357792894,166.29551040666678,163.93213929101648,163.98097229003906,329900
2024-11-01,164.16653293752452,166.98890749293048,163.69775401702358,165.4458770751953,316300
2024-11-04,165.66072177477935,166.5787284860389,164.24463934900223,164.32276916503906,191800
2024-11-05,163.81495853194275,166.37364684373878,163.81495853194275,166.32481384277344,206200
2024-11-06,171.05154898002016,171.05154898002016,168.1119872286225,169.10812377929688,264100
2024-11-07,170.12378096512896,171.35430696476374,169.47922114643825,170.62185668945312,412300
2024-11-08,170.61208381104976,173.67860841546667,170.4070060757364,171.64727783203125,309200
2024-11-11,172.19418764538844,173.86416596467407,171.78400236870633,172.0281524658203,189100
2024-11-12,172.51645146428592,173.09265701480297,170.85623379576612,171.58868408203125,179800
2024-11-13,171.39337158203125,172.26254534897026,170.95390437883552,171.39337158203125,168400
2024-11-14,171.05155682058597,171.67658049046,169.8405818424337,170.02613830566406,198200
2024-11-15,168.92257425336157,169.69408202115162,162.28168847937133,162.59420776367188,620500
2024-11-18,162.49655239968402,163.8930988274997,160.4847578059515,162.78953552246094,384400
2024-11-19,162.5258191611862,163.7465695288508,162.31096590433822,162.9945831298828,287600
2024-11-20,163.09226951003035,164.9868767017905,161.773852987427,164.7817840576172,221800
2024-11-21,164.74273502870884,166.24669318990152,163.81496756616045,165.90489196777344,205100
2024-11-22,166.19783911675128,168.04362806955587,166.19783911675128,167.49671936035156,241600
2024-11-25,168.0241100492806,169.94801412387145,167.7213662946961,168.4635772705078,270100
2024-11-26,168.81514749207574,168.81514749207574,167.1549297751935,168.0143280029297,140300
2024-11-27,168.6296004490124,169.81129356804752,167.50651587532045,167.7115936279297,167200
2024-11-29,168.55145899910121,169.43040829774364,168.06315880043525,168.91281127929688,117300
2024-12-02,168.93233680546206,169.05929962886407,166.84241249869427,168.7174835205078,170900
2024-12-03,169.39132382716835,169.39132382716835,167.0865464581629,168.3658905029297,160100
2024-12-04,167.86782016783718,168.84442043989435,167.02794333779852,168.5514373779297,173400
2024-12-05,167.98503908384095,168.40498502885572,166.5396745813458,167.09634399414062,245000
2024-12-06,167.58463897320985,168.61005749857284,166.85218865409922,167.14515686035156,209200
2024-12-09,167.5455809247015,169.41089147314173,166.24670045963933,166.79359436035156,301700
2024-12-10,166.72522539571543,167.36000970992765,164.25442751782737,166.91078186035156,287000
2024-12-11,167.85806889036164,170.02612280736926,167.73110607935809,168.2779998779297,418600
2024-12-12,167.65298456324717,168.5612306607672,166.78381082569527,167.62368774414062,178300
2024-12-13,166.91076951474722,166.99865996989303,165.8462787089003,166.21737670898438,153200
2024-12-16,166.158796503823,166.9303042864774,163.66846242787886,163.70753479003906,236100
2024-12-17,162.9946031274387,163.0043786686916,159.02960783108298,159.2737579345703,511900
2024-12-18,159.8596998530706,160.57261387443967,154.21495151029833,154.5079345703125,468600
2024-12-19,154.80093483209816,157.78934478191135,154.5274878931726,155.1525115966797,404700
2024-12-20,155.00602554523715,156.04121964416362,153.78527497542004,154.47865295410156,730200
2024-12-23,153.49228296319632,155.1817974814259,153.28720522432621,154.81069946289062,194900
2024-12-24,155.06460748481138,155.6896311333145,154.2247305600973,155.62127685546875,100500
2024-12-26,154.71306485845193,155.89475813812268,154.71306485845193,155.1330108642578,164500
2024-12-27,154.1270910423129,155.84590247939389,153.92199838988887,154.44935607910156,145000
2024-12-30,153.32624728896786,153.80478680118333,151.37304668656063,153.06256103515625,221700
2024-12-31,153.59971586271843,154.54701948074276,152.52544941905987,153.42393493652344,317100
2025-01-02,153.96102932277924,154.41027201167452,149.85931109671645,150.55270385742188,239400
2025-01-03,150.43551553521377,152.07621191768425,149.29289488218893,151.86135864257812,250700
2025-01-06,150.39645072499704,151.0214743397327,147.89635626605445,149.3417205810547,369000
2025-01-07,152.27153842764793,152.40826189282907,149.0292327240345,149.8397979736328,361200
2025-01-08,149.3124422881475,150.6503801368408,148.5311589473614,150.54295349121094,228600
2025-01-10,149.14643028639964,150.68946087220502,149.00970681179618,149.85934448242188,350800
2025-01-13,149.3514738966303,151.08006056736804,149.3514738966303,150.2890167236328,349300
2025-01-14,151.18748931990888,151.81251291278505,149.88860913904762,150.99217224121094,196900
2025-01-15,152.46686153360938,153.2481448947014,150.56249358589434,151.9199676513672,206100
2025-01-16,152.24223989964935,153.49228725350105,151.67580986403843,152.7500762939453,346300
2025-01-17,153.29697420180517,154.25403847264764,152.03715127326387,152.43756103515625,231900
2025-01-21,153.05282926731795,156.5099884289423,153.05282926731795,156.09005737304688,270900
2025-01-22,155.6115107453754,156.98852094407073,154.6349103040437,155.34783935546875,280000
2025-01-23,154.7521187567618,156.07052046490324,154.0391896764672,155.8849639892578,149800
2025-01-24,155.91424200320077,156.71506145375167,153.54111027377883,154.59584045410156,329600
2025-01-27,154.54701307242723,155.201333551255,152.98444647403235,154.75210571289062,317000
2025-01-28,153.88292658532947,156.59787440646915,153.88292658532947,154.71302795410156,204300
2025-01-29,155.06462155953,155.10369392333624,152.95516096621085,153.43370056152344,265800
2025-01-30,154.1270810917156,154.96694312356598,152.9160912404324,154.42982482910156,274200
2025-01-31,154.205198107046,155.66033807623802,153.0918742405619,153.47274780273438,834100
2025-02-03,150.96288932286944,153.0821103704106,150.53318276913035,152.3301239013672,364600
2025-02-04,152.43753017168066,154.75208290837918,152.43753017168066,154.00985717773438,302400
2025-02-05,155.01864663986422,156.3702165851502,154.52894911700784,155.05783081054688,262600
2025-02-06,156.54649741836073,156.54649741836073,152.16860045521503,153.22634887695312,446600
2025-02-07,154.37223282693162,154.64646222731156,139.11325716004725,140.22976684570312,1221500
2025-02-10,141.28754664505917,141.6205523719065,137.99677816426612,140.32774353027344,621900
2025-02-11,139.33853138038594,140.12205037233227,137.36993785826826,139.3581085205078,377300
2025-02-12,138.06531924654766,140.53339891858562,137.0467400415367,138.7802734375,423500
2025-02-13,139.80863972660936,140.81741540614397,138.54522672072014,139.82823181152344,665900
2025-02-14,140.72929960574803,142.31591505799216,139.7792850599418,141.80662536621094,512800
2025-02-18,141.806629148029,144.25511722944964,140.93496798881864,143.87315368652344,489600
2025-02-19,143.12878909814165,144.45097836650277,142.60971092774975,144.01023864746094,331000
2025-02-20,143.94170202111488,144.3824268363581,142.91333415595835,143.6576690673828,283100
2025-02-21,144.00046152927248,144.35304436591701,142.20816668836144,143.32467651367188,451900
2025-02-24,143.1679734070286,144.25510260272546,141.38548203557013,142.60972595214844,353300
2025-02-25,142.8741632870377,145.27367831527678,142.7174564829414,144.6664581298828,336700
2025-02-26,143.6282730672493,146.10614126129204,143.59889241233037,143.6184844970703,735600
2025-02-27,143.21693102979327,144.14735331926948,142.3648621360305,142.62930297851562,262800
2025-02-28,143.14838730085012,143.9221028321513,141.64991403633834,143.72622680664062,348700
2025-03-03,143.9417092483485,145.7731734330009,142.6880846270143,143.5695343017578,394100
2025-03-04,142.54117057614394,144.90151659055175,142.14941847460233,142.9329376220703,490100
2025-03-05,143.04065503791688,145.78296426258473,143.04065503791688,145.38140869140625,445100
2025-03-06,144.5195432997619,148.37836251128888,144.02984573371802,148.0355682373047,471700
2025-03-07,147.408772401794,150.20005481751275,146.1061749374176,149.6320037841797,480200
2025-03-10,148.93662196596816,150.82684736023063,147.14432711634848,147.467529296875,391100
2025-03-11,147.24227347370973,147.4577416172004,144.2355379258109,144.84275817871094,304000
2025-03-12,145.18554224213253,145.18554224213253,142.56075547219578,143.0210723876953,299700
2025-03-13,143.39324790721705,144.16696350239528,140.79784178568258,141.77723693847656,238400
2025-03-14,142.237534136815,143.86333345171332,141.56174918397278,143.63807678222656,223600
2025-03-17,143.49116498279625,144.9504690034165,142.85456417100727,144.79376220703125,225200
2025-03-18,144.35302891009385,144.49014361275349,142.7762023573171,143.28549194335938,219900
2025-03-19,143.32468002289772,144.42161273286254,142.4726110403041,143.9514923095703,279600
2025-03-20,143.1190209381293,144.38243413158088,140.76846356409283,142.2081756591797,332800
2025-03-21,141.03288741960213,142.46281077035695,139.4266801328764,141.83599853515625,601900
2025-03-24,142.7468386396778,145.1267616063011,141.92415032610805,144.94068908691406,463800
2025-03-25,145.43039772394542,146.15514060303397,142.92313347424803,144.17677307128906,325200
2025-03-26,144.0200657855328,145.63606187248132,143.2855193924863,145.4989471435547,630400
2025-03-27,145.22471455574868,146.80154137661276,144.0004705937233,146.27267456054688,312700
2025-03-28,146.2138845778836,146.90926165859608,142.7566211490686,143.9025115966797,239800
2025-03-31,143.5597480313838,146.01802456611082,143.08964252694352,145.32266235351562,372500
2025-04-01,145.81233341659282,146.93863169683007,144.3432409061711,146.02780151367188,240000
2025-04-02,144.95046129125058,148.01597245076098,144.95046129125058,147.42832946777344,247600
2025-04-03,143.73602588355362,146.9582442746014,143.44221929600363,145.60667419433594,352900
2025-04-04,142.2277708498692,144.91131905351403,137.15449598879215,137.29161071777344,531600
2025-04-07,133.5307294902565,139.19163219073434,128.15385974857273,131.87554931640625,629900
2025-04-08,134.54929557388985,136.4395208305467,128.5749798434124,130.90594482421875,473800
2025-04-09,130.43582718258966,141.44423305934052,128.6141667138947,140.7880401611328,491800
2025-04-10,137.11531475806592,140.41587148111097,134.73539182521205,137.85964965820312,309000
2025-04-11,137.967394489513,141.72828334567205,136.8606880961678,141.14064025878906,203000
2025-04-14,142.79581425798335,143.38344237476502,140.82722046414764,142.7860107421875,249300
2025-04-15,143.0896488919898,143.52057023933776,140.807656215774,140.97415161132812,250700
2025-04-16,141.09164958012386,142.8153944455794,139.63236050898016,142.0122833251953,307700
2025-04-17,142.40405194984112,142.75663480933545,137.8107011490633,140.8664093017578,390600
2025-04-21,140.347331860725,141.08187824351555,138.19266546008294,139.6421661376953,291600
2025-04-22,141.52259151328374,143.79479531157602,140.631338388382,143.0112762451172,217800
2025-04-23,144.823151790697,146.24328667195422,144.1865509396658,144.99945068359375,537000
2025-04-24,144.88192409202932,148.86806971088194,142.4628317080614,148.33920288085938,424500
2025-04-25,147.74177325388501,149.8474669754594,144.52935816394884,145.9886474609375,220500
2025-04-28,146.71340875780027,147.9180607088582,145.2247238205769,146.61546325683594,235200
2025-04-29,146.67419752698908,148.84845573678555,145.93965123839249,147.2030792236328,359900
2025-04-30,145.9984330116698,146.89947469973708,144.17675754933848,146.86029052734375,556200
2025-05-01,145.82883124627438,147.8721067076984,144.36514960993844,145.66183471679688,445300
2025-05-02,150.28867188742916,150.29848992197137,145.18047592473235,149.31614685058594,431600
2025-05-05,148.7562082163406,150.51461075676426,148.21593150363898,148.80532836914062,267600
2025-05-06,147.59705042912566,149.355437978684,146.78170385931236,148.25521850585938,312000
2025-05-07,149.1982877610097,150.44585281383766,147.96052575449374,148.71693420410156,318400
2025-05-08,149.10985945249004,151.84078718705774,148.5695827139862,150.6521453857422,302500
2025-05-09,151.19241752840685,151.57553070592974,150.23954360160494,150.6128387451172,231600
2025-05-12,153.0392239180569,153.82510139061208,150.98613045039815,152.7740020751953,352500
2025-05-13,153.55005471787953,153.55005471787953,150.49496693494288,150.9272003173828,339400
2025-05-14,150.90754450151144,150.90754450151144,148.3043412429943,149.7876739501953,350100
2025-05-15,149.65996739529265,152.7346909024297,149.65996739529265,152.21405029296875,278100
2025-05-16,152.43998138798113,154.3751983205255,151.860402608422,154.2376708984375,278600
2025-05-19,153.5991717253283,155.5442069170815,153.5500515711728,155.28880310058594,185400
2025-05-20,157.43029958325823,157.43029958325823,155.12180229520027,155.73085021972656,388100
2025-05-21,154.09032526701444,154.86636965019244,153.07851316508325,153.68756103515625,319800
2025-05-22,153.5991755437167,154.4832783830283,152.81329802579143,153.88404846191406,278900
2025-05-23,152.3810559407016,153.4223372220158,151.53624028030902,153.18658447265625,260500
2025-05-27,154.25734853178614,155.64245601461047,153.92335544765425,155.36740112304688,352800
2025-05-28,155.36739421063615,156.03538034918074,154.4832763933447,154.6208038330078,364400
2025-05-29,155.0432217337395,155.86838638532782,154.05106054476073,155.53439331054688,232100
2025-05-30,155.44598590152702,155.97644460873903,153.77599055020596,155.6031494140625,335100
2025-06-02,154.75831599595244,156.26131463804512,152.51857506289332,154.1394500732422,349600
2025-06-03,153.4223415376803,154.66010346409962,153.24552697068694,153.5009307861328,397800
2025-06-04,153.72687442684654,153.7563435201819,147.63633532186296,147.7542266845703,831900
2025-06-05,148.90356481639972,150.6324832288513,146.41823804065308,149.79750061035156,482400
2025-06-06,151.64429332994897,151.75235166609104,149.52244371290558,150.60301208496094,264700
2025-06-09,150.0136191980335,150.4753066580511,148.6874500367206,148.9232177734375,388400
2025-06-10,149.47334506320036,150.2985097546009,148.1962959040132,149.83680725097656,323500
2025-06-11,150.29849644880608,150.8780752886444,148.92322208489034,149.23756408691406,380800
2025-06-12,148.73658814675593,151.8899014382214,148.73658814675593,151.6246795654297,337200
2025-06-13,150.29848970697998,151.00577791651503,148.0685667411024,148.49098205566406,361200
2025-06-16,148.5695758002576,150.20025395390124,148.4516844355203,149.01162719726562,346200
2025-06-17,147.9998142251002,148.58921108822153,146.49683048956007,146.81117248535156,379700
2025-06-18,146.48700188455078,148.06857491409224,146.48700188455078,147.0567626953125,383200
2025-06-20,147.6363309167007,148.10786637472864,146.35929693863002,147.6461639404297,570500
2025-06-23,146.85046100186406,151.22188436993758,146.85046100186406,151.07452392578125,356500
2025-06-24,151.84077408220156,151.84077408220156,150.47530283808342,151.1531219482422,246600
2025-06-25,151.14331042765082,151.80147850793904,150.0725600428252,151.21206665039062,264700
2025-06-26,151.80148526751537,152.83294856947208,150.4163778331554,151.7523651123047,658200
2025-06-27,151.92918872409527,153.3535832332286,151.50677339306424,153.06871032714844,643100
2025-06-30,153.27497651207332,153.7366789194791,151.88005125606443,153.66790771484375,315500
2025-07-01,153.66793021902077,156.9784367941011,153.20624273336693,156.20237731933594,338300
2025-07-02,156.21219361043833,157.69552619700025,155.8487164947486,157.48924255371094,293500
2025-07-03,157.76431481113727,158.51089020387988,156.99808835850575,158.196533203125,235100
2025-07-07,158.10811741535406,159.5030428051159,157.7151861749073,158.11795043945312,313900
2025-07-08,158.05899691367227,159.70934109650693,157.02754866243734,157.22401428222656,342700
2025-07-09,157.10610304610967,157.1846922819576,155.30842861253296,156.90963745117188,252800
2025-07-10,156.37920902223024,157.52854871323547,155.53439331054688,155.53439331054688,361600
2025-07-11,155.7603190354981,155.7603190354981,153.86440405350666,155.11196899414062,292000
2025-07-14,154.3654022940558,156.13362296539574,153.92335087356255,154.77798461914062,276600
2025-07-15,154.95479334988428,155.21019713887813,151.34959626569866,151.43800354003906,254200
2025-07-16,151.2022641344678,152.8624265472358,150.83880194564915,152.24354553222656,261900
2025-07-17,152.00777788286257,153.6482890740105,151.78182817574609,153.27499389648438,397700
2025-07-18,154.08052265083427,154.43416676966828,152.18459265589,153.6188201904297,243100
2025-07-21,153.65812006565358,153.90370586328876,152.49896229571195,152.7052459716797,205900
2025-07-22,153.35357548550758,156.54619042612177,152.48910879729814,156.3595428466797,449900
2025-07-23,157.24368095923748,158.99225063096037,156.33009400189493,158.80560302734375,450500
2025-07-24,158.559320268112,161.82979531304568,157.40675735764995,159.406494140625,431900
2025-07-25,159.63305506440543,160.65753702914088,158.3819926877325,158.5888671875,296300
2025-07-28,158.79573614749467,159.56410142477418,155.80108366056007,156.33302307128906,308500
2025-07-29,156.67779828906407,157.21959813532774,154.8750906357904,156.45123291015625,388200
2025-07-30,156.43152305866946,156.55957390550213,152.60938790987095,154.4514923095703,580700
2025-07-31,153.456563501654,155.0031544025075,152.86550639902828,154.79627990722656,679700
2025-08-01,154.6288158726098,155.76165777291718,138.9856590147076,139.24179077148438,1012300
2025-08-04,140.98538123418317,140.98538123418317,135.03547356824112,137.05490112304688,839000
2025-08-05,137.26176707147744,138.9659752764255,135.63638251685612,138.12864685058594,540800
2025-08-06,138.21731427393004,138.6605996470306,135.4984842918658,136.4737091064453,515300
2025-08-07,137.71491162131494,139.37970798596095,136.83818640949156,138.39462280273438,564000
2025-08-08,138.59163887027924,139.93135534040795,138.48327889728324,138.65074157714844,428700
2025-08-11,139.222090228796,139.5077583171329,137.12385398637957,137.7838592529297,349500
2025-08-12,138.12862654943748,138.98564573069308,137.15338694127408,137.399658203125,286100
2025-08-13,137.60654859738395,139.33044762978915,137.17310872138614,139.32058715820312,729900
2025-08-14,138.09910131689176,138.09910131689176,134.40503169053025,136.2766876220703,875800
2025-08-15,136.29638497225332,136.8775816161289,135.81368782683418,136.65101623535156,770500
2025-08-18,136.81847442171076,137.4883401327873,135.3014499206359,135.83338928222656,529500
2025-08-19,136.20773671589527,138.4241784468644,136.20773671589527,137.50804138183594,333100
2025-08-20,137.8232781418471,139.14328874260568,137.18296372359896,139.07432556152344,519200
2025-08-21,138.53252821704885,139.78357552390523,138.1483456132288,138.54237365722656,270400
2025-08-22,139.15312448451428,141.19225798353852,139.08417633944555,139.32058715820312,356500
2025-08-25,138.8674588166062,139.4979127296023,136.88744301904194,137.47848510742188,245800
2025-08-26,136.9957973337368,138.06953652648775,135.95159446141804,137.62625122070312,442900
2025-08-27,137.0154742342195,138.47341091192982,136.9563715369727,137.36026000976562,729100
2025-08-28,138.07938928608468,138.07938928608468,135.35069910089788,136.8184814453125,320800
2025-08-29,137.09429553325865,137.7838521169858,136.2865335440943,137.19281005859375,370700
2025-09-02,135.37038827134234,136.46383329831713,134.13903193606467,134.37545776367188,310600
2025-09-03,134.0504057475134,134.1489052560839,132.4348665011149,133.20323181152344,382300
2025-09-04,134.3163671782823,136.41458834161003,133.0258929963137,136.3948974609375,401800
2025-09-05,136.94654859153968,138.7197049562119,135.5772807659998,136.55250549316406,440800
2025-09-08,136.52295752982062,137.91193130257207,135.62652636886406,136.23728942871094,616100
2025-09-09,136.1978803964661,137.39968559639797,133.08502244977814,135.0059356689453,637100
2025-09-10,134.09967481585545,135.409840147903,132.8387667580311,134.21788024902344,685100
2025-09-11,134.71040519706986,136.2175843964125,133.84352538471833,135.05519104003906,477500
2025-09-12,134.58232620679007,135.00592063066784,133.20321303157323,133.2130584716797,261300
2025-09-15,133.9420357302436,134.13904976383114,132.62202517087903,132.8387451171875,298000
2025-09-16,132.77962562814162,133.40023410540573,132.0999294759084,133.19337463378906,474800
2025-09-17,133.4002281421939,135.02562764541634,132.18857762612365,132.64170837402344,377400
2025-09-18,132.88798558145595,133.48888814617573,132.07037810452255,132.49395751953125,254800
2025-09-19,132.65158018177598,133.0850200863436,131.35126046807318,132.4348602294922,877200
2025-09-22,132.11962230163485,132.92739938115005,130.691251766929,130.74050903320312,402100
2025-09-23,131.0261738005905,131.95215627068484,130.00169183165633,130.0509490966797,319700
2025-09-24,130.03125417731107,131.3217134615017,129.38109429893456,129.53871154785156,353300
2025-09-25,129.53870141670419,130.54349251095573,128.32705085173455,128.8688507080078,388700
2025-09-26,129.37123644965243,130.4548211118124,129.00675974879576,130.31690979003906,274400
2025-09-29,130.42527680922657,130.7010994676822,129.4007947965638,130.29722595214844,540600
2025-09-30,129.74557555443596,131.76498814664785,129.74557555443596,131.66648864746094,310400
2025-10-01,131.3413962300209,132.3560326654084,130.33660523425266,132.13931274414062,310100
2025-10-02,131.66648573117217,132.38559368725765,130.97692912730892,131.19363403320312,398500
2025-10-03,130.49423360821496,131.58767874762543,130.45482178395852,131.23304748535156,402000
2025-10-06,130.90797079558112,131.21334480064905,129.45004891757588,129.9130401611328,447100
2025-10-07,130.13960666531722,130.5336347337186,127.8739076939909,128.64227294921875,438800
2025-10-08,129.2234697553329,130.04109227782575,128.31719317203184,129.64706420898438,361300
2025-10-09,129.73571125193516,130.8587077217144,128.258083526899,128.66197204589844,554200
2025-10-10,128.98704858156654,130.04108184834632,127.95270619480443,128.97718811035156,426000
2025-10-13,129.0363213593292,130.37603789072034,128.21869880410003,128.27780151367188,311400
2025-10-14,128.10048555861533,129.10527677147402,127.11540026045824,127.86407470703125,337400
2025-10-15,127.86406447402499,128.44526114593418,125.95299674355027,126.18942260742188,438300
2025-10-16,126.52433431790585,127.56852213268624,125.94313019312601,127.23359680175781,352700
2025-10-17,127.23361106421747,128.15959357922404,126.92823704995098,127.41091918945312,339700
2025-10-20,127.67689829106764,128.14973499654218,126.11061637022783,128.0610809326172,240500
2025-10-21,128.66197064438,129.80467301345007,127.19418837559832,128.62257385253906,311600
2025-10-22,128.70137488096933,130.13960588126338,128.04136960320932,128.12017822265625,357500
2025-10-23,128.27838836608,130.0482160538345,128.19928781482736,129.29678344726562,378600
2025-10-24,129.27699821696652,129.41542040316887,127.09188897025071,127.42807006835938,489300
2025-10-27,127.68513804202082,128.43657062662018,127.00290900843953,127.32919311523438,521700
2025-10-28,127.29953156353623,127.65547648827675,126.03395296154486,126.6568603515625,413500
2025-10-29,125.84608767724626,126.06361040803851,122.02957306455488,122.9095458984375,651100
2025-10-30,122.6425973459498,124.10591981246533,121.65386309537952,122.95899200439453,702600
2025-10-31,113.99117408852003,116.76951495369767,102.06704129042897,114.70306396484375,2758200
2025-11-03,114.78215353846566,114.78215353846566,107.07003104374891,111.84561920166016,1661000
2025-11-04,113.07164922422088,114.69317278774453,111.26226373964292,112.8936767578125,1029100
2025-11-05,113.04198468525121,114.73271928879292,111.49955417930168,114.26801300048828,896900
2025-11-06,113.72420198995826,115.64234871180304,112.517952627641,114.84147644042969,880300
2025-11-07,114.92057976181373,115.60280123250854,113.39792818360942,114.91069030761719,697200
2025-11-10,114.68328006091402,115.45449154553131,112.71570107535919,115.06888580322266,514000
2025-11-11,115.64235215314066,118.16362740289492,115.64235215314066,116.93759155273438,484800
2025-11-12,117.0067994446968,118.32181771681981,116.58165098825971,116.8288345336914,547500
2025-11-13,116.96726664292429,120.50692958090833,116.96726664292429,118.84585571289062,679400
2025-11-14,118.42069332802943,119.33033453666947,117.05624283023447,117.27376556396484,521200
2025-11-17,117.1551218108406,118.14385608312521,116.24548809076526,117.99554443359375,820200
2025-11-18,118.31193671929118,118.75686408712447,116.72995598156568,117.96587371826172,817400
2025-11-19,118.16362983624596,118.16362983624596,116.38390520642318,116.67063903808594,598900
2025-11-20,116.67063483535937,118.26249749040201,116.04773500908134,117.24410247802734,507400
2025-11-21,116.79916971414367,120.86286792776397,116.79916971414367,120.1509780883789,509100
2025-11-24,119.48852930748254,121.02107037008182,119.08315219875638,120.10154724121094,740000
2025-11-25,121.0309595133857,122.68214385066395,121.0309595133857,122.04935455322266,543600
2025-11-26,121.63407548431789,123.11717675407199,121.63407548431789,122.41517639160156,538000
2025-11-28,122.23721179455744,124.65961521692697,122.23721179455744,123.34459686279297,315700
2025-12-01,123.47312464549341,123.55222519221778,121.64396787729149,121.89115142822266,536800
2025-12-02,122.37563109798752,122.46462110038372,119.4390968008952,120.2300796508789,325400
2025-12-03,120.08176988930819,122.86011822072538,120.04222715811682,120.68489837646484,543100
2025-12-04,120.82332005860296,122.6821452414219,120.55636513524256,120.64534759521484,708000
2025-12-05,120.61568357957054,122.11856379579517,119.26112254625717,120.53659057617188,537000
2025-12-08,119.55773823925648,120.72444490270962,117.95599365521366,118.71731567382812,496600
2025-12-09,118.25260671307173,118.49979025868578,114.06037589162156,114.41632080078125,640300
2025-12-10,114.86124902547321,116.47289058274676,113.83296456280685,115.84998321533203,734700
2025-12-11,116.6310870053096,117.33308739219939,115.84010415999195,116.68052673339844,389700
2025-12-12,117.18477675810965,120.26963024864754,116.32458281214376,120.10154724121094,656400
2025-12-15,120.11143594513233,121.08039125301917,119.12270172858626,120.95185852050781,588600
2025-12-16,121.2880193092629,122.45472593627359,118.17350515259987,121.44622039794922,644800
2025-12-17,120.73433285185864,123.19627887906455,118.72720364799784,122.2372055053711,567300
2025-12-18,122.2767604710972,122.72169540087228,120.65523693661119,121.23859405517578,457100
2025-12-19,121.95047437935206,122.92932668285609,119.89391294648267,120.02244567871094,1300400
2025-12-22,120.02244905131522,122.30642273678362,119.70605439556444,121.35723876953125,527800
2025-12-23,121.48577799610219,121.64397155088497,119.95323691666961,120.81343841552734,311700
2025-12-24,121.1495961120519,121.78238537460243,120.38827412360435,121.36711883544922,198000
2025-12-26,120.99141254975284,122.08890816765887,120.34873378036154,121.86149597167969,306000
2025-12-29,121.90103810595791,122.90954365167185,120.9419647432383,121.82193756103516,400200
2025-12-30,121.41656795360201,122.89966931682952,121.04084411378047,121.35723876953125,289800
2025-12-31,120.15097596397585,121.94058998507745,119.98289296138277,120.58602142333984,314300
2026-01-02,120.36849451795845,121.61430167163682,119.41931062963688,121.15948486328125,295100
2026-01-05,120.3882753233874,123.17650539661395,120.3882753233874,121.61430358886719,435700
2026-01-06,120.84309994356978,121.4659997987374,118.75687009500949,119.20179748535156,777200
2026-01-07,119.31055741898699,120.57613602320409,116.28503309681528,119.0831527709961,478500
2026-01-08,118.56900865138992,121.98014631699301,118.17351344536358,121.06062316894531,330000
2026-01-09,120.70467850674399,123.5621198728979,120.09166055886544,122.4547348022461,429100
2026-01-12,122.60303947816963,123.88839694168902,121.59453392415777,123.72030639648438,477300
2026-01-13,123.64121411549613,124.02681984811237,121.15948917361368,122.10867309570312,351900
2026-01-14,122.71180688445504,125.72744932780128,122.71180688445504,125.42093658447266,611700
2026-01-15,125.70766789113175,125.78676843900955,123.11718152395939,123.7005386352539,381000
2026-01-16,122.60304567683241,123.78952374665012,121.85160554277793,123.30504608154297,363400
2026-01-20,123.49290649216461,124.1158063396922,122.0493554255934,122.4250717163086,275100
2026-01-21,122.90954323158518,124.2047901340779,122.50416614126715,123.6016616821289,421000
2026-01-22,123.64121667891544,124.98589581561515,122.66236437418617,123.0677490234375,369700
2026-01-23,122.93921055756546,124.85735737798285,122.4745118058816,124.58051300048828,429500
2026-01-26,124.99577817123766,125.55935637440064,123.69064930373163,124.92656707763672,315400
2026-01-27,123.54233481410213,124.87713201390274,122.77112334791536,123.33470153808594,303100
2026-01-28,122.80079414026893,123.66099567657822,121.86149959484645,122.30642700195312,347800
2026-01-29,122.88978028418853,123.86862507511535,121.20892754069328,122.4547348022461,386000
2026-01-30,121.52533188143772,123.60167232496788,121.27814831569736,123.54234313964844,512700
2026-02-02,122.80078342815366,124.49152553193812,122.80078342815366,123.42369079589844,489100
2026-02-03,122.51406220907022,126.48877049938638,122.29653947125486,123.22594451904297,658700
2026-02-04,124.77433039015442,129.44927260782487,123.77184577350829,128.26812744140625,589400
2026-02-05,126.71975064755804,128.1192596554473,121.05225107397254,123.05722045898438,2144200
2026-02-06,126.58078326238557,134.97782150042084,126.58078326238557,133.31031799316406,1045700
2026-02-09,132.5857587104382,138.531180271334,132.2582131007177,137.43936157226562,1043400
2026-02-10,136.78427392403074,139.88104683101494,136.78427392403074,139.126708984375,622100
2026-02-11,137.99519392074043,139.50388475135443,137.56840169460276,138.9678955078125,584300
2026-02-12,139.11678651599092,140.94308767923593,138.3525134196047,139.46417236328125,572700
2026-02-13,139.46418324151318,141.8661694437224,139.3649366253535,141.51878356933594,471900
2026-02-17,138.2234773285034,142.55102629654255,138.2234773285034,140.59568786621094,614700
2026-02-18,140.41703714664675,142.04482998774162,139.791721402891,140.66517639160156,582000
2026-02-19,140.5956812663536,142.25326464590432,139.98030082414553,142.09445190429688,525500
2026-02-20,142.0547550361601,144.0597244456509,140.94309602664507,143.97039794921875,664500
2026-02-23,142.42200863639354,145.15154037209857,142.06468751245615,144.63540649414062,513500
2026-02-24,144.98279666295065,145.8165408414096,142.77931908758302,143.06715393066406,429800
2026-02-25,141.35004724560304,142.59074350649368,139.38477346379526,141.61802673339844,348900
2026-02-26,142.45176871915783,142.84878541602816,139.95052112226952,140.73463439941406,331300
2026-02-27,140.47658357934912,142.9381205686862,139.9505296087492,142.64036560058594,344600
2026-03-02,141.93563886113196,142.2830398395081,140.56590547180699,141.60809326171875,335000
2026-03-03,139.5931967078321,140.26814325067423,135.90088396317486,138.71974182128906,347300
2026-03-04,138.302888395737,138.47162126788456,134.9976717766612,136.02000427246094,389000
2026-03-05,134.9877396254558,135.32520533966746,133.40957777498073,133.72718811035156,452300
2026-03-06,133.0026313554941,133.0026313554941,130.02496050425168,131.096923828125,398500
2026-03-09,129.99519404049997,132.98278521657096,126.5807954705799,132.75450134277344,545700
2026-03-10,132.3574660154593,133.1316591702968,130.42196798314936,131.14654541015625,503100
2026-03-11,130.8190202738326,132.28800044532838,129.0721101988683,131.03738403320312,563800
2026-03-12,130.29295237048808,131.8016279987067,127.68252279954663,127.90088653564453,620600
2026-03-13,129.18127925269795,129.18127925269795,126.10436183607526,127.69244384765625,660600
2026-03-16,128.5162697582332,130.43191254892886,125.06217580985977,128.0894775390625,370700
2026-03-17,129.00262050471235,130.04480827067758,127.2855013216824,128.53611755371094,276700
2026-03-18,123.45423058912087,125.63786042046195,120.51626292882625,123.29542541503906,910500
2026-03-19,122.0944332187195,123.8909588849741,120.54603921873606,123.04728698730469,518500
2026-03-20,123.33512999241371,123.33512999241371,119.41452545613383,120.15894317626953,1481500
2026-03-23,122.5907105268858,125.39964092902298,122.07457667427936,123.21601867675781,455200
2026-03-24,122.24332284607306,124.28798782763778,121.95548040949986,123.2259521484375,405000
2026-03-25,124.50634549167631,125.62793211237509,122.78921864642815,124.88351440429688,337200
2026-03-26,124.28798636131239,126.3922023143744,123.19617519683187,123.76193237304688,442100
2026-03-27,123.01751427118627,123.28550132328671,120.85373975633635,121.08202362060547,381400
2026-03-30,121.64777727824665,123.01751071469691,120.19864504103799,122.44182586669922,562000
2026-03-31,123.46415851677581,126.01502957768723,122.67010992701152,125.08202362060547,557800
2026-04-01,126.39219982096562,127.68252689973865,125.38972274230011,125.80659484863281,380200
2026-04-02,124.2085781211438,126.14406117582702,123.32520302720033,125.07210540771484,297500
2026-04-06,123.66266876079281,125.25076596450165,123.66266876079281,125.07210540771484,461100
2026-04-07,124.38723692091199,126.22346576757812,123.8711106378232,124.67507934570312,376900
2026-04-08,130.4021481364575,131.68254004802253,127.19617800807119,131.03738403320312,645200
2026-04-09,130.24332882387228,131.45424955756675,126.39220287440348,130.42198181152344,424100
2026-04-10,131.2656579543429,131.71230555728022,129.87608426848973,130.521240234375,407400
2026-04-13,129.82646170678544,131.43439923843442,126.63042687940094,131.126708984375,396300
2026-04-14,130.2532453341348,131.73216065356567,129.99518597737963,130.03488159179688,315500
2026-04-15,129.83638260646234,130.05474636457114,127.64284005257605,128.6850128173828,407100
2026-04-16,125.95547520842267,129.35994576168224,125.95547520842267,127.33512115478516,393800
2026-04-17,128.6849981610624,131.31528307681364,128.6849981610624,129.65771484375,401100
2026-04-20,129.59817078840075,131.00759986778516,128.69494031122633,129.945556640625,403600
2026-04-21,129.72718762909471,131.2656538985368,125.74703979492188,125.74703979492188,310200
2026-04-22,126.33265459801167,126.33265459801167,122.04480863207884,123.62297821044922,458900
2026-04-23,124.44679072012924,126.49146323670142,123.51379231359721,124.01007080078125,440800
2026-04-24,123.48401687155638,123.48401687155638,121.65770810014067,123.1564712524414,440900
2026-04-27,123.11676900112164,125.29047121573323,122.62049050993973,123.8016357421875,359700
2026-04-28,125.18128618602746,125.70734016180099,122.79914797388655,124.8338851928711,354300
2026-04-29,124.20857785922294,124.96292327213307,121.87607050853111,121.9852523803711,448400
2026-04-30,122.51130595027864,125.14158341040145,120.97283963229869,122.75944519042969,764800
2026-05-01,126.26316859263083,127.5237125861033,117.0224658192811,118.13412475585938,989400
2026-05-04,117.79666211505766,120.84381172589876,116.58574139374336,119.7023696899414,739600
2026-05-05,120.00014032911528,122.78922301811379,119.92073395333378,121.1217269897461,628600
2026-05-06,122.74597925597982,125.94466800462597,121.24129756714204,122.19791412353516,917000
2026-05-07,122.5068295340525,126.02439054042098,122.13813047351475,124.66918182373047,749700
2026-05-08,124.78875603965518,125.4165335007669,119.9658058031768,120.56369018554688,794900
2026-05-11,120.79288554794945,120.79288554794945,119.0191585502766,119.53732299804688,706100
2026-05-12,120.02559365453983,120.43415267647454,116.72725880994862,117.6340560913086,696600
2026-05-13,117.58423293808002,118.33159035082205,116.01976505817387,117.46465301513672,679500
2026-05-14,118.31166263789773,119.73662439056804,116.62761485678391,117.57426452636719,531000
2026-05-15,117.49455009110837,117.5045093824967,114.06666843041747,114.26596069335938,447000
2026-05-18,115.19268785792543,116.90662874327987,114.76420263658683,115.40194702148438,433100
2026-05-19,115.48166685737739,115.63113986049136,112.05378509001822,113.20970153808594,575800
2026-05-20,113.66807993613209,115.04321484042606,111.15696237122292,114.85388946533203,562600
2026-05-21,116.08951407739181,116.08951407739181,112.37265332877841,115.1030044555664,345600
2026-05-22,115.39198749681162,116.38846404651633,114.30582410432685,115.82047271728516,405800
2026-05-26,115.79056648170686,116.55785764558959,114.96349676302546,115.96993255615234,344500
2026-05-27,116.52796630163347,117.69384200162881,114.32575411191587,114.89374542236328,464000
2026-05-28,114.40547144179769,115.93007936247552,112.95061657623215,115.58131408691406,510100
2026-05-29,114.65458561775299,116.84683851674723,113.34920381323532,115.44180297851562,559600
2026-06-01,114.28589767180515,114.72434218302038,111.63526640610465,111.9840316772461,706800
2026-06-02,111.5555436879482,112.65167394505289,110.84804626905223,111.78473663330078,452400
2026-06-03,111.29646253608045,113.61824699938008,111.29646253608045,112.13349914550781,372600
2026-06-04,114.54497230632394,115.35212345281656,111.14699134502068,112.15343475341797,337600
2026-06-05,112.69152600064275,114.18624078068318,111.58544405772433,112.96057891845703,466300
2026-06-08,111.86445781905672,112.24311616501637,110.55906839000053,111.54558563232422,422200
2026-06-09,112.88085932662787,115.74074968498803,112.27300803930216,115.49163055419922,444400
2026-06-10,115.74074928767203,116.13934141606836,112.97054577921195,114.26596069335938,496800
2026-06-11,114.70441351982215,116.59772043978674,113.85740999319688,116.16923522949219,395200
2026-06-12,117.48458764205596,118.05257897569324,115.96993901734801,117.30522155761719,342600
2026-06-15,118.28175862932584,120.31457162088154,117.14577601676713,117.66394805908203,576100
2026-06-16,118.08246565966249,120.62348378448296,113.36912845320511,120.22489166259766,474700
2026-06-17,121.19147655168894,121.918900150595,119.03908362900873,119.56721496582031,680500
2026-06-18,120.03556323646836,122.1182031608104,118.69032142639777,119.89605712890625,750600
2026-06-22,119.13873446752551,120.58363003359555,118.46113010611298,119.57718658447266,468400
2026-06-23,119.93591657137902,122.14809569936509,118.6604278207416,120.1850357055664,514100
2026-06-24,121.55021059109053,124.60939323702425,121.34094382937874,123.84210205078125,404900
2026-06-25,125.28699706013307,127.68850153642342,124.45991971828299,125.98452758789062,363500
2026-06-26,125.49625757990486,126.67210019838983,124.3204149614199,125.53611755371094,727400
2026-06-29,125.16742108368359,125.60587320209562,123.48337326752176,124.84854888916016,446600
2026-06-30,124.16097333332938,125.86494727656601,123.5033027809896,124.75885772705078,329300
2026-07-01,124.67914609082169,126.39307933521575,123.66273577346423,124.80868530273438,405600
2026-07-02,125.82508774888942,127.77818082996899,124.96812492977865,126.5325927734375,468400
2026-07-06,125.98452783897301,126.6023460237271,123.74245564919634,125.56600952148438,431400
2026-07-07,126.18381913439254,128.26645901687073,125.71548155556971,127.2400894165039,392700
2026-07-08,126.00445175211411,126.26353777363065,122.60647080352626,123.77234649658203,537700
2026-07-09,124.02146439127118,125.03787467960888,123.34386006655016,124.0114974975586,302100
2026-07-10,124.55956853594634,126.53259544666133,123.93179104742975,125.08769989013672,385200
2026-07-13,125.64571994715708,126.72191640641843,123.96167980892794,124.449951171875,391600
2026-07-14,127.96751666781715,128.95403392567474,127.5091383673285,127.82801055908203,739900
2026-07-15,129.25298235497795,130.3092450844948,127.99741214779503,128.65509033203125,466800
2026-07-16,129.56187796196684,134.6040465870392,129.56187796196684,134.27520751953125,579300
2026-07-17,135.351401437915,136.16850424088722,130.24944675099272,132.1427459716797,530800
2026-07-20,131.9135687694055,131.9135687694055,129.2928306127641,129.4522705078125,422900
2026-07-21,130.07008242817932,130.59821378154385,127.46927803301472,128.45579528808594,328800
2026-07-22,129.35261865201468,130.02025611657908,128.02730301458666,128.71487426757812,309900
2026-07-23,128.39600579528673,129.36258923692642,127.71839385448645,128.54547119140625,382800
2026-07-24,129.13338680160044,132.26232242316664,129.13338680160044,131.8936309814453,335900
2026-07-27,132.72071171310446,133.60757521827134,132.19258036761323,132.9000701904297,411200
2026-07-28,134.9030016293852,137.54365843276426,134.3549364800917,137.32443237304688,593100
2026-07-29,135.52081464440568,136.11870667337666,134.0759266469227,135.75,580000
2026-07-30,136.39999389648438,136.39999389648438,133.11000061035156,133.8699951171875,627000
2026-07-31,137.4600067138672,139.57000732421875,132.1699981689453,133.9600067138672,886500
2026-08-03,137.22999572753906,138.4600067138672,134.52999877929688,136.77000427246094,642500
2026-08-04,137.8699951171875,137.8699951171875,135.33999633789062,136.17999267578125,511900
2026-08-05,136.8699951171875,136.8800048828125,134.8699951171875,136.75,454800
2026-08-06,138.6199951171875,138.69000244140625,134.6699981689453,135.77999877929688,545000
2026-08-07,135.05999755859375,137.67999267578125,134.7100067138672,135.4199981689453,686300
2026-08-10,134.38999938964844,134.52000427246094,132.92999267578125,133.67999267578125,446700
2026-08-11,132.8000030517578,135.0500030517578,132.8000030517578,134.75,343700
2026-08-12,133.50999450683594,134.47000122070312,132.27000427246094,133.14999389648438,315100
2026-08-13,134.44000244140625,134.44000244140625,132.08999633789062,132.57000732421875,490800
2026-08-14,132.08999633789062,132.75,129.55999755859375,132.10000610351562,381600
2026-08-17,133.16000366210938,133.16000366210938,130.22000122070312,131.74000549316406,374500
2026-08-18,132.75,133.47000122070312,131.22000122070312,131.72999572753906,500100
2026-08-19,133.0500030517578,134.3800048828125,132.2899932861328,132.92999267578125,390400
2026-08-20,131.4499969482422,133.8300018310547,130.89999389648438,132.9600067138672,420900
2026-08-21,134.0399932861328,135.1300048828125,133.10000610351562,134.8000030517578,400500
2026-08-24,135.36000061035156,136.33999633789062,134.38999938964844,134.75,282300
2026-08-25,135.58999633789062,135.58999633789062,133.22000122070312,134.72000122070312,280900
2026-08-26,135.0,136.63999938964844,134.44000244140625,135.24000549316406,281400
2026-08-27,133.77999877929688,134.69000244140625,132.25999450683594,132.86000061035156,295700
