Date,Open,High,Low,Close,Volume
2023-10-02,119.7839706824147,120.69776913733538,119.26455002499831,120.2841567993164,244100
2023-10-03,119.29339878482428,120.53423572898005,117.82171067436374,118.1872329711914,236300
2023-10-04,118.8413150678333,119.90901178172992,117.66781004256849,119.49539947509766,208200
2023-10-05,119.2356870928497,120.16872002997181,118.11990034706665,119.03369140625,466700
2023-10-06,118.89901776888921,121.86163560426291,118.68740116084457,121.5923080444336,491700
2023-10-09,121.02480176411956,122.3714470315645,120.89975891033677,122.10211944580078,275700
2023-10-10,122.3906804082069,123.70847018445957,121.68850597179858,121.71736145019531,322000
2023-10-11,122.66963195800781,122.83315123204267,121.82317277009818,122.66963195800781,212900
2023-10-12,122.37144727599267,122.54458748699037,120.29376474402021,120.64004516601562,189300
2023-10-13,121.19794575056598,121.84240925638196,120.62081414328858,121.1690902709961,324900
2023-10-16,122.50611121132462,122.57344310797819,121.36146162958764,121.8808822631836,275200
2023-10-17,121.20755913507936,123.44875352595633,121.20755913507936,122.62153625488281,314400
2023-10-18,122.03477780825592,122.80428408635328,121.46725986473184,121.94820404052734,287300
2023-10-19,121.2749071972549,122.61193166216363,120.61120176552791,120.93824768066406,443900
2023-10-20,121.13061711466817,121.65965871645427,117.2830631776834,117.56201171875,446500
2023-10-23,117.08105478916937,118.46617640474612,116.59048966054829,116.86943817138672,379000
2023-10-24,117.47542865086069,119.05292505320921,117.08105821958665,118.63931274414062,312100
2023-10-25,118.15677276144453,119.4596516517281,117.63561973271062,118.09886932373047,431300
2023-10-26,117.02760662773419,121.01345262337937,117.02760662773419,119.12186431884766,576000
2023-10-27,119.16047518784606,119.51755620789429,116.15902425320523,116.94075012207031,364000
2023-10-30,117.66457150071054,118.0506115995379,116.63191847013125,117.90584564208984,283100
2023-10-31,118.23397832287583,118.60071235470951,117.577712385893,118.00234985351562,422900
2023-11-01,117.847941489138,119.12186865336518,117.36539320930797,118.63932037353516,360500
2023-11-02,119.40176028259155,119.95186508578455,118.68759081389086,119.26664733886719,384300
2023-11-03,120.08696643881918,121.57321603943892,120.08696643881918,120.974853515625,278000
2023-11-06,120.89764432950582,121.34159523213705,120.39579735185238,120.82044219970703,173500
2023-11-07,120.27033814314946,120.62741916445184,119.8360402653971,120.2027816772461,205000
2023-11-08,120.52125543592591,121.10996492498091,120.06766623895945,120.75288391113281,175800
2023-11-09,121.30299122840282,121.30299122840282,119.73953212154,120.0483627319336,118600
2023-11-10,119.90358602094061,121.39948852773999,119.56580372159614,121.3319320678711,195600
2023-11-13,121.01344761610507,121.10031012853287,120.02905244156845,120.18346405029297,183100
2023-11-14,121.55391867399263,123.39725678781947,120.93625741440006,123.38760375976562,267400
2023-11-15,123.3586407628021,124.30443862184565,122.90504420607215,123.25247955322266,388600
2023-11-16,123.19457641995044,124.13071389102679,122.41284320538445,123.09806823730469,217000
2023-11-17,124.07281379686883,124.57466814111162,123.15597499237893,123.46480560302734,162700
2023-11-20,123.00154326553826,123.19456697914006,122.01714809702534,122.87608337402344,213900
2023-11-21,123.0112053695368,123.82189030028484,122.76027820488832,123.44550323486328,160600
2023-11-22,123.96664452975432,124.69046691672392,122.91469286164748,124.08246612548828,174800
2023-11-24,124.46849858209583,124.46849858209583,123.62886932734556,124.04385375976562,65900
2023-11-27,123.35864729016578,123.82189689857947,122.42250240875883,122.56726837158203,367500
2023-11-28,122.56726027052797,122.57691329757223,121.10996243713889,121.22577667236328,218000
2023-11-29,121.25472106402746,121.9881964499266,120.55985042087056,120.99414825439453,331800
2023-11-30,121.07136390507863,122.69272646591232,120.45370267838986,122.46110534667969,301000
2023-12-01,122.00749831802362,124.05349819494825,122.00749831802362,123.62886810302734,218300
2023-12-04,123.00156109551249,124.38165691773952,122.46110934528859,123.93770599365234,192000
2023-12-05,123.77362656816942,124.19827138588248,121.48634520426313,121.5925064086914,178000
2023-12-06,121.9785500946843,122.85679147312398,121.48634880167852,121.9592514038086,179500
2023-12-07,121.83379907959785,122.67343581612694,121.5925249170082,122.0750732421875,254000
2023-12-08,121.94959163804015,123.04980103471416,121.23542230546796,122.87608337402344,265800
2023-12-11,122.81820063225629,123.22353945445344,121.93030612631102,123.11737823486328,338000
2023-12-12,123.19458223267412,123.62888011972512,122.25843735432503,123.030517578125,210300
2023-12-13,122.74098611390058,124.48781597010334,122.74098611390058,124.10176849365234,425000
2023-12-14,124.57467841526314,125.4722112388653,122.45146134923064,122.95331573486328,412900
2023-12-15,122.72168474321455,124.09212012074336,121.57321745592215,121.58287048339844,713000
2023-12-18,122.28738762368339,122.76993591705903,121.48635568953519,122.61552429199219,240500
2023-12-19,123.25248124676398,123.65782739941075,121.63111872548421,121.82414245605469,659100
2023-12-20,121.62147008946454,122.50936455594228,121.08101835055845,121.18717956542969,346400
2023-12-21,121.83378846573932,121.83378846573932,120.49230482765589,121.51531219482422,421900
2023-12-22,121.98819919110086,122.6058603626526,121.71797334893472,121.86273193359375,312200
2023-12-26,121.73728030157127,122.44180403483686,121.20647424478882,121.43810272216797,274700
2023-12-27,121.71798784257851,122.05577018550782,120.6660287024811,120.90730285644531,283100
2023-12-28,120.6177554652993,121.40913424602678,120.05799776687947,120.83007049560547,343600
2023-12-29,120.82044581458585,120.98451046958296,119.2473336428409,119.30524444580078,313500
2024-01-02,118.33049161771078,119.76848345240212,118.02166100831862,118.591064453125,313100
2024-01-03,120.78183530676975,122.8181896264616,118.8516421971549,120.98450469970703,531700
2024-01-04,120.81079207973853,121.52496149850643,119.79743770955358,119.8843002319336,353300
2024-01-05,119.45965904846831,120.02906988595586,118.69723183124766,119.86499786376953,423000
2024-01-08,119.73953213187556,120.79149123065565,118.09887089459961,120.00975799560547,352400
2024-01-09,119.39209643843853,120.28963654792885,118.6779270344352,120.27998352050781,250300
2024-01-10,120.11591846241205,121.04241028792013,119.89395037419895,120.82044219970703,279600
2024-01-11,121.00380927134914,122.53831669687723,120.57917177350777,122.41284942626953,323100
2024-01-12,123.42620632136199,123.50341581821841,121.52496479911424,122.01716613769531,231700
2024-01-16,121.4863709002332,122.39356416155735,121.12928983081257,122.3839111328125,257500
2024-01-17,121.54425168376522,122.82782439180721,121.49599391506591,122.26807403564453,336900
2024-01-18,122.87609292611428,125.47219764873277,121.90134334518042,124.632568359375,444200
2024-01-19,125.18269023740162,126.87160933829033,124.0535142223177,126.2346420288086,418000
2024-01-22,126.33114430629186,127.20938578312573,126.00301498292735,126.61103057861328,266200
2024-01-23,127.1997241248171,127.24798189599859,125.78103106406539,127.22867584228516,217800
2024-01-24,127.50854252440655,127.6726071592471,125.98368831528413,126.21531677246094,294400
2024-01-25,127.42171958083198,127.75950932548159,125.82931587310064,126.6689453125,332300
2024-01-26,127.08391965169312,127.96216113643406,126.81369376811224,127.10322570800781,219900
2024-01-29,126.47593527744455,127.96217783104227,125.93548343977265,127.63404846191406,187800
2024-01-30,127.42172599337037,128.44472621842192,127.03569317394991,127.63404846191406,228400
2024-01-31,128.14711904243458,128.53436707997895,125.03953294065279,125.73656463623047,537500
2024-02-01,126.29804406272626,126.92730171682662,125.47515503321043,126.33676147460938,298800
2024-02-02,125.81402131560124,126.54009480830622,124.58453273179327,125.94955444335938,344800
2024-02-05,125.01047371963757,127.25645293560962,123.96492632234019,126.48197174072266,319500
2024-02-06,126.31742086735336,127.20806924035398,125.1750723363318,126.94669342041016,369700
2024-02-07,127.21775641252626,128.1955300337722,125.24282830267967,127.5953140258789,393000
2024-02-08,127.44039987265825,130.53831002584943,127.3435841792457,127.90508270263672,620700
2024-02-09,127.8954242006926,134.76892573911803,127.31455950628941,134.5269012451172,650900
2024-02-12,134.72051017566284,135.98871608812559,133.12313974347538,133.21995544433594,491300
2024-02-13,132.3293155563288,132.94889767408426,130.67386150701182,131.5935516357422,275900
2024-02-14,131.91300327103065,133.0747324694231,130.8577801954245,132.79397583007812,335000
2024-02-15,132.7939868427026,133.41356890629376,130.27694117211416,130.73193359375,471400
2024-02-16,131.05138100848956,133.59748268821022,130.7319069946388,133.11343383789062,453900
2024-02-20,132.76492924425213,135.66922259050702,132.580988302136,135.23358154296875,373000
2024-02-21,134.643058365309,135.64019802544166,134.5559330991619,135.53370666503906,276300
2024-02-22,135.9887045298492,137.87649236016304,135.60147130332354,136.95680236816406,295700
2024-02-23,137.44085155268917,137.51830115254398,136.11456223867728,136.85031127929688,190300
2024-02-26,136.98584148427423,137.5279738997732,136.3081759649005,137.39244079589844,199200
2024-02-27,137.39242389962342,137.64412398386563,135.3400615013445,135.8337860107422,244600
2024-02-28,135.194869665944,136.7341565973834,134.88508601058652,135.93063354492188,189600
2024-02-29,136.14360929042408,137.1117071682836,135.36912803373622,135.97903442382812,250600
2024-03-01,135.41754419742617,136.29850209365307,135.1077457669271,135.814453125,151400
2024-03-04,136.20169440578695,137.5860672968912,136.07583695314057,137.43118286132812,260300
2024-03-05,137.73128791076408,138.64130227082694,137.21819722213309,137.9733123779297,190200
2024-03-06,138.37021994084103,139.05757592063267,137.93457885855102,138.50576782226562,184000
2024-03-07,139.8901458387967,140.5097279007667,139.25119768276474,140.0353546142578,250100
2024-03-08,140.09345993941886,140.44197579004816,138.40896419937695,138.52513122558594,185200
2024-03-11,138.23470289544156,138.80589192553307,137.4505459017938,138.18630981445312,226700
2024-03-12,138.24437886769354,138.29278671562085,136.9664825880185,137.8668212890625,242200
2024-03-13,138.43800441506068,138.43800441506068,136.43403460324666,136.65670776367188,336800
2024-03-14,136.8503260525416,137.10202620024066,135.88222810784958,136.4340362548828,235200
2024-03-15,135.57242007632507,137.86682208776077,135.2820025310812,136.50180053710938,599500
2024-03-18,136.43404366008966,136.79224996402957,134.49784766561507,134.81732177734375,299700
2024-03-19,134.44943456936542,135.84349784138894,134.44943456936542,135.059326171875,253000
2024-03-20,135.17551943672254,135.6014848917867,134.70114613049162,135.50466918945312,220000
2024-03-21,135.83380611845956,137.08266060945118,134.85603261400937,136.6373291015625,255800
2024-03-22,137.47958214730536,137.9055476013454,136.55021640394727,137.07298278808594,276000
2024-03-25,136.69541504364804,139.4544998568,136.66637328957285,138.39927673339844,316300
2024-03-26,138.273400364292,139.7061808666231,138.07009334158332,138.631591796875,314200
2024-03-27,139.08659141008025,140.5193718351404,139.08659141008025,140.04501342773438,218200
2024-03-28,140.1999450522203,140.71303575776633,139.06725750918295,139.2996063232422,247800
2024-04-01,139.20278768938965,139.20278768938965,137.58606600215256,137.75064086914062,204400
2024-04-02,137.31500593788894,137.31500593788894,135.91126690307195,136.14361572265625,202600
2024-04-03,136.18232831953642,136.6857433581489,135.40784705367142,136.38563537597656,258700
2024-04-04,137.3053243590496,138.1959726377349,136.47275958975655,137.22787475585938,403600
2024-04-05,136.8696707293308,138.20563563898364,136.45338099681578,137.20849609375,288300
2024-04-08,137.1504324507475,137.83778848313548,135.91126827776824,136.02743530273438,312500
2024-04-09,135.94027734869056,136.59859146655273,134.91409614955109,135.8337860107422,242600
2024-04-10,134.5462509693493,135.74669776324401,134.0331602299272,134.95285034179688,200700
2024-04-11,134.8173099688125,135.57242515875745,134.03315302325444,134.69146728515625,265300
2024-04-12,133.76208470665995,134.51719988484666,131.62259662579817,132.82302856445312,299200
2024-04-15,134.18804610778258,135.3497605952717,133.4329309523146,133.79112243652344,319600
2024-04-16,133.39420463004214,134.94316719612974,132.97792961895718,134.16868591308594,281700
2024-04-17,134.44946945443067,135.03031945381733,133.93637864090363,133.98477172851562,565400
2024-04-18,133.9750570093757,134.99156267697953,133.81048215225894,134.67208862304688,246600
2024-04-19,134.6237091251192,135.45627401831655,134.34296719727521,134.894775390625,276600
2024-04-22,135.09805115725143,136.64699877649178,134.80761886239384,135.84349060058594,298800
2024-04-23,135.31104215956182,136.65669759538656,135.06901769432713,135.6789093017578,417200
2024-04-24,135.88281662716403,136.80520507967753,135.5818281146395,135.94107055664062,559200
2024-04-25,135.7759941871754,137.14502060339382,134.88273282197122,136.10610961914062,694400
2024-04-26,137.87326188150567,144.19406594832364,137.77616210897216,139.16461181640625,489500
2024-04-29,140.68894676515575,143.71828418532212,140.17435067690909,142.12594604492188,676700
2024-04-30,141.50452795897255,141.85406627729742,139.8733442016764,140.18405151367188,585100
2024-05-01,140.77634869572992,142.9318328954004,140.37826043918207,141.15501403808594,359600
2024-05-02,141.5239675984383,142.46577897675033,141.06762539181938,141.6793212890625,356500
2024-05-03,142.8347262098354,142.85414912308485,140.63069223929037,142.54344177246094,303300
2024-05-06,143.465818493184,144.7474639874066,142.88326448108887,144.7086181640625,260200
2024-05-07,144.00957355262796,146.00970404941293,144.00957355262796,145.36888122558594,392900
2024-05-08,145.36887962927,146.4854527186998,145.13584910988936,146.40777587890625,223500
2024-05-09,146.6116820419674,147.3204628465896,144.3105630316223,144.7474822998047,299100
2024-05-10,144.62126017257594,144.6698100517693,143.78625262261644,144.1746368408203,186300
2024-05-13,144.21346995257653,145.13585840929454,142.59200470826642,143.57264709472656,167500
2024-05-14,143.99014505242278,143.99984910137368,143.18426452924012,143.6017608642578,137600
2024-05-15,143.66001677139636,144.02896319801914,142.50459798974526,142.99977111816406,211100
2024-05-16,143.0871700529018,143.60176615776547,142.17448569624776,143.25222778320312,235500
2024-05-17,143.55324035133813,143.8639329180127,142.85416355714113,143.3784637451172,169500
2024-05-20,143.30076094395258,144.0969373546569,142.76674198742418,143.86390686035156,163400
2024-05-21,143.64063969473372,144.3591246810753,142.8153360686792,144.27174377441406,280400
2024-05-22,143.7668346921676,144.50474243328088,143.18426581237048,144.4658966064453,283300
2024-05-23,144.3396862943476,144.62125187296155,143.27164827475897,143.427001953125,171700
2024-05-24,144.1649049429506,144.50473925123936,143.07745886097342,143.78623962402344,162300
2024-05-28,143.32990795502417,143.48526163962768,141.58223085693479,142.4463653564453,318400
2024-05-29,141.41716447863772,142.4366527072403,140.31029535438608,140.63070678710938,229700
2024-05-30,140.91227152936236,142.7084983843772,140.78604481723752,141.89291381835938,328100
2024-05-31,141.8443808876884,143.5338189608347,141.6793231449918,143.39788818359375,358900
2024-06-03,144.18434827896806,144.18434827896806,142.0288639073479,143.85423278808594,266200
2024-06-04,143.3590315880983,144.07753125118836,142.43664318212836,143.8833465576172,287900
2024-06-05,143.4270158524189,143.89306211733856,142.8056158940781,143.62120056152344,229200
2024-06-06,143.7085664873753,143.7085664873753,141.17441703689698,141.71815490722656,197600
2024-06-07,141.53369124615435,142.07741436636817,141.22298385440706,141.32008361816406,179100
2024-06-10,140.62099421122554,141.57250958640344,139.80540960393014,141.35890197753906,125800
2024-06-11,140.6986648827164,141.50454540530546,140.15494183502784,141.27151489257812,147700
2024-06-12,141.9900224631697,142.05798044025738,139.88308812796836,141.59193420410156,221300
2024-06-13,141.6501881317032,142.27158805169188,140.805476550794,141.59193420410156,232400
2024-06-14,140.8734351702916,141.15501557544053,139.50440860403918,140.54331970214844,141500
2024-06-17,140.6598313540665,142.41722736375868,140.3685617068692,142.07740783691406,303800
2024-06-18,142.22303735719075,143.39787921333664,142.2133333077604,142.42694091796875,219900
2024-06-20,142.39781323867697,143.24252481049206,141.43657899757036,141.572509765625,199900
2024-06-21,141.6307756362361,142.8638715174382,141.0870525181657,142.58230590820312,444100
2024-06-24,142.9415237902204,143.92216604419272,142.4075048141597,142.4560546875,182900
2024-06-25,142.52403514640127,142.53375401180762,140.30059282386082,140.65013122558594,194500
2024-06-26,140.05783894105218,140.58213906374502,138.80533514968837,139.53353881835938,192400
2024-06-27,139.6888885498047,139.69860741462887,138.135396158235,139.6888885498047,377300
2024-06-28,139.60149156021046,140.12580647860236,136.0187272741163,136.71780395507812,435100
2024-07-01,137.27127014880173,137.36835509564582,134.36815911737452,134.5137939453125,306400
2024-07-02,134.45551784033776,136.41681715340104,133.7564411508368,136.31971740722656,259400
2024-07-03,136.7858055226286,137.2906828198518,136.48481699130676,137.1159210205078,143300
2024-07-05,136.89260200916505,137.32952129947634,135.66921021788147,136.80520629882812,207000
2024-07-08,137.53342224222834,138.3587258312191,137.38778740433332,137.39749145507812,249300
2024-07-09,136.7663914889435,137.16447981154025,135.68864921029444,135.97021484375,238400
2024-07-10,136.65955303485114,137.51398340041877,136.48479126844396,137.18385314941406,142000
2024-07-11,137.09648258623827,139.13545890652216,136.65956332198957,137.9606170654297,244500
2024-07-12,139.2422698494713,141.2618233593471,139.2422698494713,140.38796997070312,263900
2024-07-15,140.55302268784044,141.45600300897715,138.98010738595784,139.2616729736328,319900
2024-07-16,139.66948303288666,141.07734063154754,139.66948303288666,140.3588409423828,178800
2024-07-17,140.14523913079555,141.5336886876332,140.14523913079555,140.65013122558594,242300
2024-07-18,140.40737409059614,142.97065035321154,140.39767004209162,142.02883911132812,434200
2024-07-19,142.3298497313873,142.3298497313873,140.45594581987174,141.69874572753906,251200
2024-07-22,141.74726125406514,143.2716263961412,141.02876171284905,142.91238403320312,235700
2024-07-23,143.57265645199828,144.1940564353192,141.43659493529168,141.79583740234375,234500
2024-07-24,141.82495301591825,142.3686760490821,139.71800403939616,139.95103454589844,250600
2024-07-25,139.11343221874438,140.30168787194964,137.54532532307127,137.8083038330078,558100
2024-07-26,139.40560564885226,147.35326223129871,138.64590329069,142.84375,562800
2024-07-29,142.76584597383152,144.4897929937424,141.39253199421196,143.9541015625,390900
2024-07-30,143.54504923709058,144.05150768530154,141.62630915801532,141.95745849609375,411000
2024-07-31,142.6879506951532,144.9768077260866,141.62631694963213,143.15545654296875,280600
2024-08-01,143.05804117385702,145.64881403519908,141.64575972559882,143.20413208007812,335300
2024-08-02,142.7658734897668,143.17494297199187,140.00951055934578,141.89903259277344,213500
2024-08-05,139.69780574748174,139.69780574748174,135.85059153457982,137.0193634033203,448500
2024-08-06,137.65245225788104,142.28858689391723,137.4381756914255,141.1587677001953,476000
2024-08-07,142.21069714802718,143.4281711438002,139.73679652778338,139.86341857910156,353600
2024-08-08,140.70101663202263,142.356778003838,140.70101663202263,141.7723846435547,268600
2024-08-09,141.6263160680969,141.6263160680969,139.7367940818522,140.2042999267578,263200
2024-08-12,140.22377593602033,140.42830322987103,139.05500395736158,139.56146240234375,221100
2024-08-13,139.77575009355726,141.51918118976857,139.37642991519138,140.61337280273438,212000
2024-08-14,140.37958921087778,141.0418877556547,139.75624328448924,140.1555633544922,115700
2024-08-15,141.22695417806543,143.5060614579835,141.22695417806543,143.1846466064453,277500
2024-08-16,142.30806341467064,143.01906387906809,141.8210739450238,142.90219116210938,250600
2024-08-19,142.51262572122243,143.88592492526362,142.12302517326572,143.1457061767578,191200
2024-08-20,143.1554262192904,144.45082004519588,143.1554262192904,144.2560272216797,387200
2024-08-21,144.3144557805946,145.67803519496948,143.62293906523604,145.44427490234375,267300
2024-08-22,145.6780688711514,146.48645848882754,144.80147871746917,145.1131591796875,200400
2024-08-23,145.7657034384913,146.6130604286141,145.5514268655365,146.52540588378906,221400
2024-08-26,146.75912859865647,148.6973518949086,146.23318654945226,146.25267028808594,235500
2024-08-27,146.10658758715397,147.59677430031587,145.94101293699603,147.265625,208300
2024-08-28,147.00265865265132,148.01560524076524,147.00265865265132,147.59678649902344,249000
2024-08-29,148.58049863148904,148.9311316640923,147.27537034525355,148.31752014160156,187100
2024-08-30,148.23959762370004,149.4473369078232,147.69417177336692,149.20384216308594,178500
2024-09-03,148.15196236389943,148.4149408837286,145.8338873365541,146.1358184814453,362400
2024-09-04,145.7072750829975,146.97343598691867,145.7072750829975,146.807861328125,175800
2024-09-05,147.14874398418533,147.8110425475091,146.0481429967178,146.79811096191406,200600
2024-09-06,146.4670042698961,149.13569790154227,146.4670042698961,148.4149627685547,319100
2024-09-09,148.5999677014531,149.07720785028144,147.4993667902164,147.95713806152344,241500
2024-09-10,147.91819898327566,148.81425795867298,147.49939511007815,147.56756591796875,158100
2024-09-11,146.8663066160262,146.95397603273526,144.76252298810905,146.91500854492188,178000
2024-09-12,146.96369468322857,148.05454643692235,146.06763576244578,148.005859375,200400
2024-09-13,148.22986559888577,149.02852064652984,147.9474033678148,148.31752014160156,138600
2024-09-16,149.05773552118288,149.18435754345714,148.11298958996787,149.00904846191406,182900
2024-09-17,149.9927649627968,151.5219191158579,147.9181849513857,149.04800415039062,259900
2024-09-18,149.75900813476628,151.4440025327287,148.73634205746214,149.08697509765625,214200
2024-09-19,150.98623601631084,154.677610065008,150.98623601631084,152.8173065185547,412400
2024-09-20,152.24267408275566,152.24267408275566,150.46029050724783,151.85308837890625,663300
2024-09-23,152.1063064527266,152.82705629994214,150.71352354488388,151.9017791748047,315800
2024-09-24,152.11603410552289,152.99262412844,151.96994319924016,152.55433654785156,246200
2024-09-25,153.2068961113986,153.7620564003903,151.8140984456662,153.05105590820312,284100
2024-09-26,153.83025116800434,154.92110293146314,153.59649084937433,154.25880432128906,371600
2024-09-27,154.5509862737545,157.34631621260434,154.14191686210978,155.72950744628906,354300
2024-09-30,155.14512315625234,156.2457242868971,154.7944900883672,156.02171325683594,289800
2024-10-01,156.36259442762125,156.36259442762125,154.9113751149142,155.80743408203125,192200
2024-10-02,155.70027309577677,155.94376782945204,153.84971906454047,154.61915588378906,186900
2024-10-03,153.8789526282023,156.2846820263738,152.564074990201,154.80422973632812,367000
2024-10-04,155.77820432469008,157.26839101232096,155.18407653760102,156.40155029296875,350500
2024-10-07,155.2425276346262,155.48602240881075,153.89843172537022,154.5607452392578,223300
2024-10-08,154.16139329533596,154.8821430979149,153.01210522116568,154.54124450683594,205900
2024-10-09,154.2295709430776,155.88533216711275,154.00554508664416,155.54443359375,152600
2024-10-10,153.93741148142823,155.23280556674862,153.93741148142823,155.07696533203125,168500
2024-10-11,156.75218568056042,157.70668095780067,156.17754162622376,157.3463134765625,194400
2024-10-14,160.6968029731812,163.394714143239,159.20661626974442,162.8395538330078,469700
2024-10-15,162.96615916864047,165.2452662626044,162.1577548858949,164.29075622558594,397300
2024-10-16,164.31025487859057,164.79724438022347,161.6025944384509,161.71946716308594,330000
2024-10-17,162.63500734074424,163.94015048027507,162.18698532860228,163.52133178710938,238200
2024-10-18,164.69985199950776,164.69985199950776,163.41419260808226,164.24208068847656,171500
2024-10-21,164.0862524476999,164.1057361900711,161.97271968352462,162.00193786621094,217900
2024-10-22,161.40779833915946,162.04087873375656,160.52147389733162,161.49545288085938,228500
2024-10-23,162.17724687078498,163.6089972685699,161.83636311905678,163.28758239746094,318100
2024-10-24,164.38140383544402,164.39116447584829,162.26216763017436,162.65281677246094,547300
2024-10-25,164.96734120598276,165.87558734575057,160.75819577884172,164.95758056640625,518900
2024-10-28,165.92439581087592,167.3990718969887,164.81107199246878,165.14312744140625,350000
2024-10-29,165.0747671080742,165.52400985615543,163.71729312603756,164.7524871826172,338100
2024-10-30,164.41068693257148,166.2173887714383,164.18605810635694,165.07476806640625,290300
2024-10-31,165.13333821190827,166.29549493250488,163.93212403677143,163.98095703125,329900
2024-11-01,164.16653293752452,166.98890749293048,163.69775401702358,165.4458770751953,316300
2024-11-04,165.66073715780885,166.57874395431327,164.24465460053625,164.32278442382812,191800
2024-11-05,163.81495853194275,166.37364684373878,163.81495853194275,166.32481384277344,206200
2024-11-06,171.05156441416634,171.05156441416634,168.1120023975292,169.10813903808594,264100
2024-11-07,170.12376575088302,171.3542916404713,169.4792059898356,170.62184143066406,412300
2024-11-08,170.61209897781401,173.6786238548333,170.40702122427004,171.6472930908203,309200
2024-11-11,172.19418764538844,173.86416596467407,171.78400236870633,172.0281524658203,189100
2024-11-12,172.5164361229937,173.09264162227078,170.85621860211134,171.5886688232422,179800
2024-11-13,171.3933868408203,172.26256068514002,170.95391959849974,171.3933868408203,168400
2024-11-14,171.05154146977196,171.67656508355398,169.84056660029717,170.026123046875,198200
2024-11-15,168.92259010604147,169.6940979462343,162.28170370883174,162.59422302246094,620500
2024-11-18,162.4965219370304,163.8930681030405,160.4847277204419,162.7895050048828,384400
2024-11-19,162.52583437609178,163.74658485803732,162.31098109913023,162.99459838867188,287600
2024-11-20,163.0922544076903,164.98686142400987,161.77383800717232,164.78176879882812,221800
2024-11-21,164.74273502870884,166.24669318990152,163.81496756616045,165.90489196777344,205100
2024-11-22,166.19783911675128,168.04362806955587,166.19783911675128,167.49671936035156,241600
2024-11-25,168.0241100492806,169.94801412387145,167.7213662946961,168.4635772705078,270100
2024-11-26,168.81513216055757,168.81513216055757,167.1549145944536,168.01431274414062,140300
2024-11-27,168.62958510670097,169.81127811822287,167.50650063518984,167.71157836914062,167200
2024-11-29,168.5514742252474,169.43042360328997,168.06317398247072,168.91282653808594,117300
2024-12-02,168.93233680546206,169.05929962886407,166.84241249869427,168.7174835205078,170900
2024-12-03,169.39133917889114,169.39133917889114,167.0865616010066,168.36590576171875,160100
2024-12-04,167.86783536473908,168.84443572520686,167.02795845866723,168.55145263671875,173400
2024-12-05,167.98502374389864,168.40496965056505,166.5396593733903,167.09632873535156,245000
2024-12-06,167.58463897320985,168.61005749857284,166.85218865409922,167.14515686035156,209200
2024-12-09,167.54556559711838,169.4108759749143,166.24668525088177,166.7935791015625,301700
2024-12-10,166.72521015388972,167.3599944100707,164.25441250187913,166.9107666015625,287000
2024-12-11,167.85808411107303,170.02613822467129,167.73112128855698,168.27801513671875,418600
2024-12-12,167.6530150861591,168.56126134903442,166.78384119036537,167.62371826171875,178300
2024-12-13,166.9107848371899,166.99867530040407,165.8462939336225,166.21739196777344,153200
2024-12-16,166.158796503823,166.9303042864774,163.66846242787886,163.70753479003906,236100
2024-12-17,162.99458751218418,163.00436305250057,159.02959259568405,159.27374267578125,511900
2024-12-18,159.85971564038562,160.57262973216018,154.21496674015316,154.50794982910156,468600
2024-12-19,154.80093483209816,157.78934478191135,154.5274878931726,155.1525115966797,404700
2024-12-20,155.00601023435632,156.0412042310304,153.7852597851201,154.4786376953125,730200
2024-12-23,153.49229809203675,155.1818127767919,153.28722033295332,154.8107147216797,194900
2024-12-24,155.06460748481138,155.6896311333145,154.2247305600973,155.62127685546875,100500
2024-12-26,154.71301920600163,155.8947121369805,154.71301920600163,155.13296508789062,164500
2024-12-27,154.12710626926386,155.84591787615443,153.92201359657776,154.44937133789062,145000
2024-12-30,153.32624728896786,153.80478680118333,151.37304668656063,153.06256103515625,221700
2024-12-31,153.59971586271843,154.54701948074276,152.52544941905987,153.42393493652344,317100
2025-01-02,153.96104492700826,154.4102876614351,149.8593262852289,150.55271911621094,239400
2025-01-03,150.43551553521377,152.07621191768425,149.29289488218893,151.86135864257812,250700
2025-01-06,150.39646609155173,151.02148977014832,147.89637137716537,149.34173583984375,369000
2025-01-07,152.27153842764793,152.40826189282907,149.0292327240345,149.8397979736328,361200
2025-01-08,149.31245742221395,150.65039540651844,148.53117400223823,150.54296875,228600
2025-01-10,149.1463999140004,150.68943018558076,149.0096764672395,149.85931396484375,350800
2025-01-13,149.35150422383165,151.08009124557495,149.35150422383165,150.28904724121094,349300
2025-01-14,151.18748931990888,151.81251291278505,149.88860913904762,150.99217224121094,196900
2025-01-15,152.4668462198905,153.24812950251066,150.5624784634495,151.91995239257812,206100
2025-01-16,152.24223989964935,153.49228725350105,151.67580986403843,152.7500762939453,346300
2025-01-17,153.29697420180517,154.25403847264764,152.03715127326387,152.43756103515625,231900
2025-01-21,153.05282926731795,156.5099884289423,153.05282926731795,156.09005737304688,270900
2025-01-22,155.61149546068765,156.98850552412839,154.63489511528093,155.3478240966797,280000
2025-01-23,154.7521036088612,156.070505187951,154.03917459835165,155.88494873046875,149800
2025-01-24,155.91424200320077,156.71506145375167,153.54111027377883,154.59584045410156,329600
2025-01-27,154.54701307242723,155.201333551255,152.98444647403235,154.75210571289062,317000
2025-01-28,153.8829569391678,156.5979052958385,153.8829569391678,154.7130584716797,204300
2025-01-29,155.0646061385479,155.10367849846844,152.95514575501196,153.43368530273438,265800
2025-01-30,154.12706586283983,154.96692781170574,152.9160761312112,154.4298095703125,274200
2025-01-31,154.20518277543422,155.66032259995123,153.09185901964062,153.4727325439453,834100
2025-02-03,150.96288932286944,153.0821103704106,150.53318276913035,152.3301239013672,364600
2025-02-04,152.43756037769683,154.75211357303183,152.43756037769683,154.0098876953125,302400
2025-02-05,155.01866189479728,156.3702319730873,154.52896432375118,155.05784606933594,262600
2025-02-06,156.54651300778121,156.54651300778121,152.16861560867,153.2263641357422,446600
2025-02-07,154.37223282693162,154.64646222731156,139.11325716004725,140.22976684570312,1221500
2025-02-10,141.2875312819042,141.62053697254157,137.99676315893876,140.32772827148438,621900
2025-02-11,139.33856189367694,140.12208105720353,137.36996794046337,139.35813903808594,377300
2025-02-12,138.06531924654766,140.53339891858562,137.0467400415367,138.7802734375,423500
2025-02-13,139.80865498326042,140.8174307728779,138.54524183950096,139.8282470703125,665900
2025-02-14,140.72928446288225,142.3158997444021,139.7792700193002,141.80661010742188,512800
2025-02-18,141.80661410840983,144.2551019301506,140.93495304164546,143.87313842773438,489600
2025-02-19,143.12878909814165,144.45097836650277,142.60971092774975,144.01023864746094,331000
2025-02-20,143.94170202111488,144.3824268363581,142.91333415595835,143.6576690673828,283100
2025-02-21,144.0004768600077,144.3530597341893,142.20818182828341,143.32469177246094,451900
2025-02-24,143.1679734070286,144.25510260272546,141.38548203557013,142.60972595214844,353300
2025-02-25,142.87414821729212,145.27366299244076,142.71744142972454,144.66644287109375,336700
2025-02-26,143.62828832707837,146.10615678438293,143.59890766903789,143.61849975585938,735600
2025-02-27,143.21693102979327,144.14735331926948,142.3648621360305,142.62930297851562,262800
2025-02-28,143.14838730085012,143.9221028321513,141.64991403633834,143.72622680664062,348700
2025-03-03,143.94169395000412,145.7731579400057,142.68806946190705,143.56951904296875,394100
2025-03-04,142.54117057614394,144.90151659055175,142.14941847460233,142.9329376220703,490100
2025-03-05,143.0406700510276,145.78297956351986,143.0406700510276,145.3814239501953,445100
2025-03-06,144.51952840338762,148.37834721716624,144.02983088781943,148.03555297851562,471700
2025-03-07,147.40874233764586,150.20002418408012,146.10614513893535,149.63197326660156,480200
2025-03-10,148.93660655516885,150.82683175384557,147.14431189100188,147.46751403808594,391100
2025-03-11,147.24225796213827,147.45772608292995,144.23552273099082,144.84274291992188,304000
2025-03-12,145.18552675241813,145.18552675241813,142.56074026251753,143.02105712890625,299700
2025-03-13,143.39324790721705,144.16696350239528,140.79784178568258,141.77723693847656,238400
2025-03-14,142.23754924682325,143.86334873443155,141.5617642221919,143.63809204101562,223600
2025-03-17,143.49116498279625,144.9504690034165,142.85456417100727,144.79376220703125,225200
2025-03-18,144.35302891009385,144.49014361275349,142.7762023573171,143.28549194335938,219900
2025-03-19,143.32466483055046,144.42159742424096,142.47259593827573,143.95147705078125,279600
2025-03-20,143.1190209381293,144.38243413158088,140.76846356409283,142.2081756591797,332800
2025-03-21,141.03288741960213,142.46281077035695,139.4266801328764,141.83599853515625,601900
2025-03-24,142.7468386396778,145.1267616063011,141.92415032610805,144.94068908691406,463800
2025-03-25,145.43038233248038,146.15512513486658,142.9231183481365,144.1767578125,325200
2025-03-26,144.0200657855328,145.63606187248132,143.2855193924863,145.4989471435547,630400
2025-03-27,145.22471455574868,146.80154137661276,144.0004705937233,146.27267456054688,312700
2025-03-28,146.2138845778836,146.90926165859608,142.7566211490686,143.9025115966797,239800
2025-03-31,143.5597480313838,146.01802456611082,143.08964252694352,145.32266235351562,372500
2025-04-01,145.8123486528671,146.93864705079392,144.34325598893645,146.02781677246094,240000
2025-04-02,144.950476293581,148.0159877703709,144.950476293581,147.4283447265625,247600
2025-04-03,143.73601082079833,146.95822887417515,143.4422042640377,145.60665893554688,352900
2025-04-04,142.2277708498692,144.91131905351403,137.15449598879215,137.29161071777344,531600
2025-04-07,133.53071403995318,139.19161608543078,128.1538449204054,131.8755340576172,629900
2025-04-08,134.5493112573588,136.43953673434598,128.57499483049722,130.9059600830078,473800
2025-04-09,130.43584131939255,141.44424838924863,128.6141806532637,140.78805541992188,491800
2025-04-10,137.11531475806592,140.41587148111097,134.73539182521205,137.85964965820312,309000
2025-04-11,137.967394489513,141.72828334567205,136.8606880961678,141.14064025878906,203000
2025-04-14,142.79581425798335,143.38344237476502,140.82722046414764,142.7860107421875,249300
2025-04-15,143.08963340422312,143.5205547049289,140.80764097500608,140.97413635253906,250700
2025-04-16,141.09164958012386,142.8153944455794,139.63236050898016,142.0122833251953,307700
2025-04-17,142.40403652449308,142.7566193457953,137.81068622127157,140.86639404296875,390600
2025-04-21,140.34731652488202,141.08186282740823,138.19265035968172,139.64215087890625,291600
2025-04-22,141.52259151328374,143.79479531157602,140.631338388382,143.0112762451172,217800
2025-04-23,144.823151790697,146.24328667195422,144.1865509396658,144.99945068359375,537000
2025-04-24,144.88193899518825,148.86808502407243,142.4628463623824,148.33921813964844,424500
2025-04-25,147.74175781185858,149.84745131334506,144.52934305768525,145.98863220214844,220500
2025-04-28,146.71340875780027,147.9180607088582,145.2247238205769,146.61546325683594,235200
2025-04-29,146.67421273095528,148.84847116613122,145.939666366217,147.20309448242188,359900
2025-04-30,145.99844818091182,146.8994899625974,144.17677252930838,146.8603057861328,556200
2025-05-01,145.8288159699916,147.87209121737254,144.36513448698346,145.6618194580078,445300
2025-05-02,150.28867188742916,150.29848992197137,145.18047592473235,149.31614685058594,431600
2025-05-05,148.7562234700928,150.51462619082648,148.21594670199013,148.8053436279297,267600
2025-05-06,147.59705042912566,149.355437978684,146.78170385931236,148.25521850585938,312000
2025-05-07,149.19827245283236,150.44583737765655,147.9605105733144,148.7169189453125,318400
2025-05-08,149.1098443499113,151.84077180787722,148.5695676661293,150.65213012695312,302500
2025-05-09,151.1924328459138,151.5755460622504,150.23955882257493,150.61285400390625,231600
2025-05-12,153.0392239180569,153.82510139061208,150.98613045039815,152.7740020751953,352500
2025-05-13,153.55003919391905,153.55003919391905,150.49495171985274,150.92718505859375,339400
2025-05-14,150.90755987438112,150.90755987438112,148.30435635067707,149.78768920898438,350100
2025-05-15,149.65999740079963,152.73472152439172,149.65999740079963,152.21408081054688,278100
2025-05-16,152.4400115498671,154.3752288653149,151.86043265563208,154.23770141601562,278600
2025-05-19,153.5991717253283,155.5442069170815,153.5500515711728,155.28880310058594,185400
2025-05-20,157.43029958325823,157.43029958325823,155.12180229520027,155.73085021972656,388100
2025-05-21,154.09032526701444,154.86636965019244,153.07851316508325,153.68756103515625,319800
2025-05-22,153.59916031317496,154.483263064821,152.81328287317552,153.884033203125,278900
2025-05-23,152.3810559407016,153.4223372220158,151.53624028030902,153.18658447265625,260500
2025-05-27,154.25731823224677,155.64242544300552,153.92332521371847,155.36737060546875,352800
2025-05-28,155.36739421063615,156.03538034918074,154.4832763933447,154.6208038330078,364400
2025-05-29,155.0432217337395,155.86838638532782,154.05106054476073,155.53439331054688,232100
2025-05-30,155.44598590152702,155.97644460873903,153.77599055020596,155.6031494140625,335100
2025-06-02,154.75831599595244,156.26131463804512,152.51857506289332,154.1394500732422,349600
2025-06-03,153.4223415376803,154.66010346409962,153.24552697068694,153.5009307861328,397800
2025-06-04,153.72689030243944,153.75635939881812,147.63635056847724,147.75424194335938,831900
2025-06-05,148.90357998413,150.632498572694,146.41825295522108,149.79751586914062,482400
2025-06-06,151.6443086942385,151.75236704132885,149.52245886221365,150.60302734375,264700
2025-06-09,150.0136191980335,150.4753066580511,148.6874500367206,148.9232177734375,388400
2025-06-10,149.47332984142486,150.2984944487939,148.19628081228734,149.8367919921875,323500
2025-06-11,150.298481081542,150.87805986212132,148.92320685824114,149.237548828125,380800
2025-06-12,148.7365731786107,151.88988615274167,148.7365731786107,151.62466430664062,337200
2025-06-13,150.29848970697998,151.00577791651503,148.0685667411024,148.49098205566406,361200
2025-06-16,148.5695758002576,150.20025395390124,148.4516844355203,149.01162719726562,346200
2025-06-17,147.9998142251002,148.58921108822153,146.49683048956007,146.81117248535156,379700
2025-06-18,146.48700188455078,148.06857491409224,146.48700188455078,147.0567626953125,383200
2025-06-20,147.6363309167007,148.10786637472864,146.35929693863002,147.6461639404297,570500
2025-06-23,146.85047583401547,151.2218996436103,146.85047583401547,151.0745391845703,356500
2025-06-24,151.84077408220156,151.84077408220156,150.47530283808342,151.1531219482422,246600
2025-06-25,151.14332567950171,151.80149382620556,150.0725751866268,151.2120819091797,264700
2025-06-26,151.80147000378724,152.83293320202972,150.41636270870066,151.75234985351562,658200
2025-06-27,151.92918872409527,153.3535832332286,151.50677339306424,153.06871032714844,643100
2025-06-30,153.27500695161754,153.73670945071478,151.88008141858438,153.66793823242188,315500
2025-07-01,153.66793021902077,156.9784367941011,153.20624273336693,156.20237731933594,338300
2025-07-02,156.2122087454969,157.69554147577566,155.84873159459067,157.4892578125,293500
2025-07-03,157.76431481113727,158.51089020387988,156.99808835850575,158.196533203125,235100
2025-07-07,158.1081326731942,159.50305819756994,157.71520139482857,158.1179656982422,313900
2025-07-08,158.0589815738471,159.70932559651376,157.02753342271552,157.2239990234375,342700
2025-07-09,157.10613360189868,157.18472285303153,155.30845881868973,156.90966796875,252800
2025-07-10,156.37920902223024,157.52854871323547,155.53439331054688,155.53439331054688,361600
2025-07-11,155.7603190354981,155.7603190354981,153.86440405350666,155.11196899414062,292000
2025-07-14,154.3654022940558,156.13362296539574,153.92335087356255,154.77798461914062,276600
2025-07-15,154.95480896302266,155.21021277775083,151.34961151557988,151.43801879882812,254200
2025-07-16,151.2022489800424,152.8624112264187,150.83878682765217,152.2435302734375,261900
2025-07-17,152.00777788286257,153.6482890740105,151.78182817574609,153.27499389648438,397700
2025-07-18,154.08052265083427,154.43416676966828,152.18459265589,153.6188201904297,243100
2025-07-21,153.6580893576471,153.90367510620285,152.49893181935886,152.70521545410156,205900
2025-07-22,153.35357548550758,156.54619042612177,152.48910879729814,156.3595428466797,449900
2025-07-23,157.24366585052525,158.99223535423732,156.3300789809644,158.8055877685547,450500
2025-07-24,158.559320268112,161.82979531304568,157.40675735764995,159.406494140625,431900
2025-07-25,159.63305506440543,160.65753702914088,158.3819926877325,158.5888671875,296300
2025-07-28,158.79573614749467,159.56410142477418,155.80108366056007,156.33302307128906,308500
2025-07-29,156.67779828906407,157.21959813532774,154.8750906357904,156.45123291015625,388200
2025-07-30,156.43152305866946,156.55957390550213,152.60938790987095,154.4514923095703,580700
2025-07-31,153.456563501654,155.0031544025075,152.86550639902828,154.79627990722656,679700
2025-08-01,154.6288158726098,155.76165777291718,138.9856590147076,139.24179077148438,1012300
2025-08-04,140.98539693056597,140.98539693056597,135.03548860220042,137.05491638183594,839000
2025-08-05,137.26176707147744,138.9659752764255,135.63638251685612,138.12864685058594,540800
2025-08-06,138.21731427393004,138.6605996470306,135.4984842918658,136.4737091064453,515300
2025-08-07,137.71491162131494,139.37970798596095,136.83818640949156,138.39462280273438,564000
2025-08-08,138.59163887027924,139.93135534040795,138.48327889728324,138.65074157714844,428700
2025-08-11,139.222090228796,139.5077583171329,137.12385398637957,137.7838592529297,349500
2025-08-12,138.12862654943748,138.98564573069308,137.15338694127408,137.399658203125,286100
2025-08-13,137.60654859738395,139.33044762978915,137.17310872138614,139.32058715820312,729900
2025-08-14,138.09910131689176,138.09910131689176,134.40503169053025,136.2766876220703,875800
2025-08-15,136.29636975306326,136.877566332041,135.81367266154328,136.6510009765625,770500
2025-08-18,136.81848979115895,137.4883555774846,135.30146511966976,135.83340454101562,529500
2025-08-19,136.20773671589527,138.4241784468644,136.20773671589527,137.50804138183594,333100
2025-08-20,137.8232781418471,139.14328874260568,137.18296372359896,139.07432556152344,519200
2025-08-21,138.53254347475354,139.78359091939785,138.14836082862038,138.54238891601562,270400
2025-08-22,139.15312448451428,141.19225798353852,139.08417633944555,139.32058715820312,356500
2025-08-25,138.8674588166062,139.4979127296023,136.88744301904194,137.47848510742188,245800
2025-08-26,136.9957973337368,138.06953652648775,135.95159446141804,137.62625122070312,442900
2025-08-27,137.01548945470773,138.47342629437426,136.95638675089546,137.3602752685547,729100
2025-08-28,138.07940468549748,138.07940468549748,135.35071419599137,136.81849670410156,320800
2025-08-29,137.09429553325865,137.7838521169858,136.2865335440943,137.19281005859375,370700
2025-09-02,135.37040364310914,136.46384879424832,134.13904716800675,134.37547302246094,310600
2025-09-03,134.0503903916783,134.1488898889654,132.43485133034417,133.20321655273438,382300
2025-09-04,134.3163671782823,136.41458834161003,133.0258929963137,136.3948974609375,401800
2025-09-05,136.94653328871905,138.71968945525342,135.5772656161853,136.552490234375,440800
2025-09-08,136.52295752982062,137.91193130257207,135.62652636886406,136.23728942871094,616100
2025-09-09,136.1978803964661,137.39968559639797,133.08502244977814,135.0059356689453,637100
2025-09-10,134.09965957050477,135.40982475360394,132.83875165602893,134.21786499023438,685100
2025-09-11,134.71040519706986,136.2175843964125,133.84352538471833,135.05519104003906,477500
2025-09-12,134.58234162242087,135.00593609481896,133.20322828923454,133.21307373046875,261300
2025-09-15,133.9420357302436,134.13904976383114,132.62202517087903,132.8387451171875,298000
2025-09-16,132.7796408395311,133.40024938789284,132.0999446094311,133.19338989257812,474800
2025-09-17,133.40021279614652,135.0256121123868,132.18856241946168,132.64169311523438,377400
2025-09-18,132.88797027728828,133.48887277280454,132.0703628945154,132.4939422607422,254800
2025-09-19,132.65158018177598,133.0850200863436,131.35126046807318,132.4348602294922,877200
2025-09-22,132.11962230163485,132.92739938115005,130.691251766929,130.74050903320312,402100
2025-09-23,131.0261738005905,131.95215627068484,130.00169183165633,130.0509490966797,319700
2025-09-24,130.03125417731107,131.3217134615017,129.38109429893456,129.53871154785156,353300
2025-09-25,129.53870141670419,130.54349251095573,128.32705085173455,128.8688507080078,388700
2025-09-26,129.37123644965243,130.4548211118124,129.00675974879576,130.31690979003906,274400
2025-09-29,130.42527680922657,130.7010994676822,129.4007947965638,130.29722595214844,540600
2025-09-30,129.74557555443596,131.76498814664785,129.74557555443596,131.66648864746094,310400
2025-10-01,131.3413962300209,132.3560326654084,130.33660523425266,132.13931274414062,310100
2025-10-02,131.66650104495739,132.38560908468045,130.9769443608936,131.1936492919922,398500
2025-10-03,130.49423360821496,131.58767874762543,130.45482178395852,131.23304748535156,402000
2025-10-06,130.90798617122863,131.2133602121639,129.45006412198484,129.91305541992188,447100
2025-10-07,130.13959122892322,130.53361925058735,127.8738925263408,128.6422576904297,438800
2025-10-08,129.2234697553329,130.04109227782575,128.31719317203184,129.64706420898438,361300
2025-10-09,129.73572663806536,130.8587232410274,128.2580987377885,128.6619873046875,554200
2025-10-10,128.98704858156654,130.04108184834632,127.95270619480443,128.97718811035156,426000
2025-10-13,129.0363213593292,130.37603789072034,128.21869880410003,128.27780151367188,311400
2025-10-14,128.10047791511465,129.10526906801942,127.11539267573563,127.86406707763672,337400
2025-10-15,127.86406447402499,128.44526114593418,125.95299674355027,126.18942260742188,438300
2025-10-16,126.5243419047704,127.56852978216413,125.94313774513942,127.23360443115234,352700
2025-10-17,127.23361106421747,128.15959357922404,126.92823704995098,127.41091918945312,339700
2025-10-20,127.67688307805489,128.1497197271898,126.11060134384137,128.06106567382812,240500
2025-10-21,128.66197064438,129.80467301345007,127.19418837559832,128.62257385253906,311600
2025-10-22,128.70137488096933,130.13960588126338,128.04136960320932,128.12017822265625,357500
2025-10-23,128.27838836608,130.0482160538345,128.19928781482736,129.29678344726562,378600
2025-10-24,129.27699821696652,129.41542040316887,127.09188897025071,127.42807006835938,489300
2025-10-27,127.68513804202082,128.43657062662018,127.00290900843953,127.32919311523438,521700
2025-10-28,127.29953156353623,127.65547648827675,126.03395296154486,126.6568603515625,413500
2025-10-29,125.84608767724626,126.06361040803851,122.02957306455488,122.9095458984375,651100
2025-10-30,122.6425973459498,124.10591981246533,121.65386309537952,122.95899200439453,702600
2025-10-31,113.99117408852003,116.76951495369767,102.06704129042897,114.70306396484375,2758200
2025-11-03,114.78215353846566,114.78215353846566,107.07003104374891,111.84561920166016,1661000
2025-11-04,113.07164922422088,114.69317278774453,111.26226373964292,112.8936767578125,1029100
2025-11-05,113.04198468525121,114.73271928879292,111.49955417930168,114.26801300048828,896900
2025-11-06,113.72420198995826,115.64234871180304,112.517952627641,114.84147644042969,880300
2025-11-07,114.92057976181373,115.60280123250854,113.39792818360942,114.91069030761719,697200
2025-11-10,114.68328006091402,115.45449154553131,112.71570107535919,115.06888580322266,514000
2025-11-11,115.64235215314066,118.16362740289492,115.64235215314066,116.93759155273438,484800
2025-11-12,117.0067994446968,118.32181771681981,116.58165098825971,116.8288345336914,547500
2025-11-13,116.96726664292429,120.50692958090833,116.96726664292429,118.84585571289062,679400
2025-11-14,118.42069332802943,119.33033453666947,117.05624283023447,117.27376556396484,521200
2025-11-17,117.1551218108406,118.14385608312521,116.24548809076526,117.99554443359375,820200
2025-11-18,118.31193671929118,118.75686408712447,116.72995598156568,117.96587371826172,817400
2025-11-19,118.16362983624596,118.16362983624596,116.38390520642318,116.67063903808594,598900
2025-11-20,116.67063483535937,118.26249749040201,116.04773500908134,117.24410247802734,507400
2025-11-21,116.79916971414367,120.86286792776397,116.79916971414367,120.1509780883789,509100
2025-11-24,119.48852930748254,121.02107037008182,119.08315219875638,120.10154724121094,740000
2025-11-25,121.0309595133857,122.68214385066395,121.0309595133857,122.04935455322266,543600
2025-11-26,121.63407548431789,123.11717675407199,121.63407548431789,122.41517639160156,538000
2025-11-28,122.23721179455744,124.65961521692697,122.23721179455744,123.34459686279297,315700
2025-12-01,123.47312464549341,123.55222519221778,121.64396787729149,121.89115142822266,536800
2025-12-02,122.37563109798752,122.46462110038372,119.4390968008952,120.2300796508789,325400
2025-12-03,120.08176988930819,122.86011822072538,120.04222715811682,120.68489837646484,543100
2025-12-04,120.82332005860296,122.6821452414219,120.55636513524256,120.64534759521484,708000
2025-12-05,120.61568357957054,122.11856379579517,119.26112254625717,120.53659057617188,537000
2025-12-08,119.55773823925648,120.72444490270962,117.95599365521366,118.71731567382812,496600
2025-12-09,118.25260671307173,118.49979025868578,114.06037589162156,114.41632080078125,640300
2025-12-10,114.86124902547321,116.47289058274676,113.83296456280685,115.84998321533203,734700
2025-12-11,116.6310870053096,117.33308739219939,115.84010415999195,116.68052673339844,389700
2025-12-12,117.18477675810965,120.26963024864754,116.32458281214376,120.10154724121094,656400
2025-12-15,120.11143594513233,121.08039125301917,119.12270172858626,120.95185852050781,588600
2025-12-16,121.2880193092629,122.45472593627359,118.17350515259987,121.44622039794922,644800
2025-12-17,120.73433285185864,123.19627887906455,118.72720364799784,122.2372055053711,567300
2025-12-18,122.2767604710972,122.72169540087228,120.65523693661119,121.23859405517578,457100
2025-12-19,121.95047437935206,122.92932668285609,119.89391294648267,120.02244567871094,1300400
2025-12-22,120.02244905131522,122.30642273678362,119.70605439556444,121.35723876953125,527800
2025-12-23,121.48577799610219,121.64397155088497,119.95323691666961,120.81343841552734,311700
2025-12-24,121.1495961120519,121.78238537460243,120.38827412360435,121.36711883544922,198000
2025-12-26,120.99141254975284,122.08890816765887,120.34873378036154,121.86149597167969,306000
2025-12-29,121.90103810595791,122.90954365167185,120.9419647432383,121.82193756103516,400200
2025-12-30,121.41656795360201,122.89966931682952,121.04084411378047,121.35723876953125,289800
2025-12-31,120.15097596397585,121.94058998507745,119.98289296138277,120.58602142333984,314300
2026-01-02,120.36849451795845,121.61430167163682,119.41931062963688,121.15948486328125,295100
2026-01-05,120.3882753233874,123.17650539661395,120.3882753233874,121.61430358886719,435700
2026-01-06,120.84309994356978,121.4659997987374,118.75687009500949,119.20179748535156,777200
2026-01-07,119.31055741898699,120.57613602320409,116.28503309681528,119.0831527709961,478500
2026-01-08,118.56900865138992,121.98014631699301,118.17351344536358,121.06062316894531,330000
2026-01-09,120.70467850674399,123.5621198728979,120.09166055886544,122.4547348022461,429100
2026-01-12,122.60303947816963,123.88839694168902,121.59453392415777,123.72030639648438,477300
2026-01-13,123.64121411549613,124.02681984811237,121.15948917361368,122.10867309570312,351900
2026-01-14,122.71180688445504,125.72744932780128,122.71180688445504,125.42093658447266,611700
2026-01-15,125.70766789113175,125.78676843900955,123.11718152395939,123.7005386352539,381000
2026-01-16,122.60304567683241,123.78952374665012,121.85160554277793,123.30504608154297,363400
2026-01-20,123.49290649216461,124.1158063396922,122.0493554255934,122.4250717163086,275100
2026-01-21,122.90954323158518,124.2047901340779,122.50416614126715,123.6016616821289,421000
2026-01-22,123.64121667891544,124.98589581561515,122.66236437418617,123.0677490234375,369700
2026-01-23,122.93921055756546,124.85735737798285,122.4745118058816,124.58051300048828,429500
2026-01-26,124.99577817123766,125.55935637440064,123.69064930373163,124.92656707763672,315400
2026-01-27,123.54233481410213,124.87713201390274,122.77112334791536,123.33470153808594,303100
2026-01-28,122.80079414026893,123.66099567657822,121.86149959484645,122.30642700195312,347800
2026-01-29,122.88978028418853,123.86862507511535,121.20892754069328,122.4547348022461,386000
2026-01-30,121.52533188143772,123.60167232496788,121.27814831569736,123.54234313964844,512700
2026-02-02,122.80078342815366,124.49152553193812,122.80078342815366,123.42369079589844,489100
2026-02-03,122.51406220907022,126.48877049938638,122.29653947125486,123.22594451904297,658700
2026-02-04,124.77433039015442,129.44927260782487,123.77184577350829,128.26812744140625,589400
2026-02-05,126.71975064755804,128.1192596554473,121.05225107397254,123.05722045898438,2144200
2026-02-06,126.58078326238557,134.97782150042084,126.58078326238557,133.31031799316406,1045700
2026-02-09,132.5857587104382,138.531180271334,132.2582131007177,137.43936157226562,1043400
2026-02-10,136.78427392403074,139.88104683101494,136.78427392403074,139.126708984375,622100
2026-02-11,137.99519392074043,139.50388475135443,137.56840169460276,138.9678955078125,584300
2026-02-12,139.11678651599092,140.94308767923593,138.3525134196047,139.46417236328125,572700
2026-02-13,139.46418324151318,141.8661694437224,139.3649366253535,141.51878356933594,471900
2026-02-17,138.2234773285034,142.55102629654255,138.2234773285034,140.59568786621094,614700
2026-02-18,140.41703714664675,142.04482998774162,139.791721402891,140.66517639160156,582000
2026-02-19,140.5956812663536,142.25326464590432,139.98030082414553,142.09445190429688,525500
2026-02-20,142.0547550361601,144.0597244456509,140.94309602664507,143.97039794921875,664500
2026-02-23,142.42200863639354,145.15154037209857,142.06468751245615,144.63540649414062,513500
2026-02-24,144.98279666295065,145.8165408414096,142.77931908758302,143.06715393066406,429800
2026-02-25,141.35004724560304,142.59074350649368,139.38477346379526,141.61802673339844,348900
2026-02-26,142.45176871915783,142.84878541602816,139.95052112226952,140.73463439941406,331300
2026-02-27,140.47658357934912,142.9381205686862,139.9505296087492,142.64036560058594,344600
2026-03-02,141.93563886113196,142.2830398395081,140.56590547180699,141.60809326171875,335000
2026-03-03,139.5931967078321,140.26814325067423,135.90088396317486,138.71974182128906,347300
2026-03-04,138.302888395737,138.47162126788456,134.9976717766612,136.02000427246094,389000
2026-03-05,134.9877396254558,135.32520533966746,133.40957777498073,133.72718811035156,452300
2026-03-06,133.0026313554941,133.0026313554941,130.02496050425168,131.096923828125,398500
2026-03-09,129.99519404049997,132.98278521657096,126.5807954705799,132.75450134277344,545700
2026-03-10,132.3574660154593,133.1316591702968,130.42196798314936,131.14654541015625,503100
2026-03-11,130.8190202738326,132.28800044532838,129.0721101988683,131.03738403320312,563800
2026-03-12,130.29295237048808,131.8016279987067,127.68252279954663,127.90088653564453,620600
2026-03-13,129.18127925269795,129.18127925269795,126.10436183607526,127.69244384765625,660600
2026-03-16,128.5162697582332,130.43191254892886,125.06217580985977,128.0894775390625,370700
2026-03-17,129.00262050471235,130.04480827067758,127.2855013216824,128.53611755371094,276700
2026-03-18,123.45423058912087,125.63786042046195,120.51626292882625,123.29542541503906,910500
2026-03-19,122.0944332187195,123.8909588849741,120.54603921873606,123.04728698730469,518500
2026-03-20,123.33512999241371,123.33512999241371,119.41452545613383,120.15894317626953,1481500
2026-03-23,122.5907105268858,125.39964092902298,122.07457667427936,123.21601867675781,455200
2026-03-24,122.24332284607306,124.28798782763778,121.95548040949986,123.2259521484375,405000
2026-03-25,124.50634549167631,125.62793211237509,122.78921864642815,124.88351440429688,337200
2026-03-26,124.28798636131239,126.3922023143744,123.19617519683187,123.76193237304688,442100
2026-03-27,123.01751427118627,123.28550132328671,120.85373975633635,121.08202362060547,381400
2026-03-30,121.64777727824665,123.01751071469691,120.19864504103799,122.44182586669922,562000
2026-03-31,123.46415851677581,126.01502957768723,122.67010992701152,125.08202362060547,557800
2026-04-01,126.39219982096562,127.68252689973865,125.38972274230011,125.80659484863281,380200
2026-04-02,124.2085781211438,126.14406117582702,123.32520302720033,125.07210540771484,297500
2026-04-06,123.66266876079281,125.25076596450165,123.66266876079281,125.07210540771484,461100
2026-04-07,124.38723692091199,126.22346576757812,123.8711106378232,124.67507934570312,376900
2026-04-08,130.4021481364575,131.68254004802253,127.19617800807119,131.03738403320312,645200
2026-04-09,130.24332882387228,131.45424955756675,126.39220287440348,130.42198181152344,424100
2026-04-10,131.2656579543429,131.71230555728022,129.87608426848973,130.521240234375,407400
2026-04-13,129.82646170678544,131.43439923843442,126.63042687940094,131.126708984375,396300
2026-04-14,130.2532453341348,131.73216065356567,129.99518597737963,130.03488159179688,315500
2026-04-15,129.83638260646234,130.05474636457114,127.64284005257605,128.6850128173828,407100
2026-04-16,125.95547520842267,129.35994576168224,125.95547520842267,127.33512115478516,393800
2026-04-17,128.6849981610624,131.31528307681364,128.6849981610624,129.65771484375,401100
2026-04-20,129.59817078840075,131.00759986778516,128.69494031122633,129.945556640625,403600
2026-04-21,129.72718762909471,131.2656538985368,125.74703979492188,125.74703979492188,310200
2026-04-22,126.33265459801167,126.33265459801167,122.04480863207884,123.62297821044922,458900
2026-04-23,124.44679072012924,126.49146323670142,123.51379231359721,124.01007080078125,440800
2026-04-24,123.48401687155638,123.48401687155638,121.65770810014067,123.1564712524414,440900
2026-04-27,123.11676900112164,125.29047121573323,122.62049050993973,123.8016357421875,359700
2026-04-28,125.18128618602746,125.70734016180099,122.79914797388655,124.8338851928711,354300
2026-04-29,124.20857785922294,124.96292327213307,121.87607050853111,121.9852523803711,448400
2026-04-30,122.51130595027864,125.14158341040145,120.97283963229869,122.75944519042969,764800
2026-05-01,126.26316859263083,127.5237125861033,117.0224658192811,118.13412475585938,989400
2026-05-04,117.79666211505766,120.84381172589876,116.58574139374336,119.7023696899414,739600
2026-05-05,120.00014032911528,122.78922301811379,119.92073395333378,121.1217269897461,628600
2026-05-06,122.74597925597982,125.94466800462597,121.24129756714204,122.19791412353516,917000
2026-05-07,122.5068295340525,126.02439054042098,122.13813047351475,124.66918182373047,749700
2026-05-08,124.78875603965518,125.4165335007669,119.9658058031768,120.56369018554688,794900
2026-05-11,120.79288554794945,120.79288554794945,119.0191585502766,119.53732299804688,706100
2026-05-12,120.02559365453983,120.43415267647454,116.72725880994862,117.6340560913086,696600
2026-05-13,117.58423293808002,118.33159035082205,116.01976505817387,117.46465301513672,679500
2026-05-14,118.31166263789773,119.73662439056804,116.62761485678391,117.57426452636719,531000
2026-05-15,117.49455009110837,117.5045093824967,114.06666843041747,114.26596069335938,447000
2026-05-18,115.19268785792543,116.90662874327987,114.76420263658683,115.40194702148438,433100
2026-05-19,115.48166685737739,115.63113986049136,112.05378509001822,113.20970153808594,575800
2026-05-20,113.66807993613209,115.04321484042606,111.15696237122292,114.85388946533203,562600
2026-05-21,116.08951407739181,116.08951407739181,112.37265332877841,115.1030044555664,345600
2026-05-22,115.39198749681162,116.38846404651633,114.30582410432685,115.82047271728516,405800
2026-05-26,115.79056648170686,116.55785764558959,114.96349676302546,115.96993255615234,344500
2026-05-27,116.52796630163347,117.69384200162881,114.32575411191587,114.89374542236328,464000
2026-05-28,114.40547144179769,115.93007936247552,112.95061657623215,115.58131408691406,510100
2026-05-29,114.65458561775299,116.84683851674723,113.34920381323532,115.44180297851562,559600
2026-06-01,114.28589767180515,114.72434218302038,111.63526640610465,111.9840316772461,706800
2026-06-02,111.5555436879482,112.65167394505289,110.84804626905223,111.78473663330078,452400
2026-06-03,111.29646253608045,113.61824699938008,111.29646253608045,112.13349914550781,372600
2026-06-04,114.54497230632394,115.35212345281656,111.14699134502068,112.15343475341797,337600
2026-06-05,112.69152600064275,114.18624078068318,111.58544405772433,112.96057891845703,466300
2026-06-08,111.86445781905672,112.24311616501637,110.55906839000053,111.54558563232422,422200
2026-06-09,112.88085932662787,115.74074968498803,112.27300803930216,115.49163055419922,444400
2026-06-10,115.74074928767203,116.13934141606836,112.97054577921195,114.26596069335938,496800
2026-06-11,114.70441351982215,116.59772043978674,113.85740999319688,116.16923522949219,395200
2026-06-12,117.48458764205596,118.05257897569324,115.96993901734801,117.30522155761719,342600
2026-06-15,118.28175862932584,120.31457162088154,117.14577601676713,117.66394805908203,576100
2026-06-16,118.08246565966249,120.62348378448296,113.36912845320511,120.22489166259766,474700
2026-06-17,121.19147655168894,121.918900150595,119.03908362900873,119.56721496582031,680500
2026-06-18,120.03556323646836,122.1182031608104,118.69032142639777,119.89605712890625,750600
2026-06-22,119.13873446752551,120.58363003359555,118.46113010611298,119.57718658447266,468400
2026-06-23,119.93591657137902,122.14809569936509,118.6604278207416,120.1850357055664,514100
2026-06-24,121.55021059109053,124.60939323702425,121.34094382937874,123.84210205078125,404900
2026-06-25,125.28699706013307,127.68850153642342,124.45991971828299,125.98452758789062,363500
2026-06-26,125.49625757990486,126.67210019838983,124.3204149614199,125.53611755371094,727400
2026-06-29,125.16742108368359,125.60587320209562,123.48337326752176,124.84854888916016,446600
2026-06-30,124.16097333332938,125.86494727656601,123.5033027809896,124.75885772705078,329300
2026-07-01,124.67914609082169,126.39307933521575,123.66273577346423,124.80868530273438,405600
2026-07-02,125.82508774888942,127.77818082996899,124.96812492977865,126.5325927734375,468400
2026-07-06,125.98452783897301,126.6023460237271,123.74245564919634,125.56600952148438,431400
2026-07-07,126.18381913439254,128.26645901687073,125.71548155556971,127.2400894165039,392700
2026-07-08,126.00445175211411,126.26353777363065,122.60647080352626,123.77234649658203,537700
2026-07-09,124.02146439127118,125.03787467960888,123.34386006655016,124.0114974975586,302100
2026-07-10,124.55956853594634,126.53259544666133,123.93179104742975,125.08769989013672,385200
2026-07-13,125.64571994715708,126.72191640641843,123.96167980892794,124.449951171875,391600
2026-07-14,127.96751666781715,128.95403392567474,127.5091383673285,127.82801055908203,739900
2026-07-15,129.25298235497795,130.3092450844948,127.99741214779503,128.65509033203125,466800
2026-07-16,129.56187796196684,134.6040465870392,129.56187796196684,134.27520751953125,579300
2026-07-17,135.351401437915,136.16850424088722,130.24944675099272,132.1427459716797,530800
2026-07-20,131.9135687694055,131.9135687694055,129.2928306127641,129.4522705078125,422900
2026-07-21,130.07008242817932,130.59821378154385,127.46927803301472,128.45579528808594,328800
2026-07-22,129.35261865201468,130.02025611657908,128.02730301458666,128.71487426757812,309900
2026-07-23,128.39600579528673,129.36258923692642,127.71839385448645,128.54547119140625,382800
2026-07-24,129.13338680160044,132.26232242316664,129.13338680160044,131.8936309814453,335900
2026-07-27,132.72071171310446,133.60757521827134,132.19258036761323,132.9000701904297,411200
2026-07-28,134.9030016293852,137.54365843276426,134.3549364800917,137.32443237304688,593100
2026-07-29,135.52081464440568,136.11870667337666,134.0759266469227,135.75,580000
2026-07-30,136.39999389648438,136.39999389648438,133.11000061035156,133.8699951171875,627000
2026-07-31,137.4600067138672,139.57000732421875,132.1699981689453,133.9600067138672,886500
2026-08-03,137.22999572753906,138.4600067138672,134.52999877929688,136.77000427246094,642500
2026-08-04,137.8699951171875,137.8699951171875,135.33999633789062,136.17999267578125,511900
2026-08-05,136.8699951171875,136.8800048828125,134.8699951171875,136.75,454800
2026-08-06,138.6199951171875,138.69000244140625,134.6699981689453,135.77999877929688,545000
2026-08-07,135.05999755859375,137.67999267578125,134.7100067138672,135.4199981689453,686300
2026-08-10,134.38999938964844,134.52000427246094,132.92999267578125,133.67999267578125,446700
2026-08-11,132.8000030517578,135.0500030517578,132.8000030517578,134.75,343700
2026-08-12,133.50999450683594,134.47000122070312,132.27000427246094,133.14999389648438,315100
2026-08-13,134.44000244140625,134.44000244140625,132.08999633789062,132.57000732421875,490800
2026-08-14,132.08999633789062,132.75,129.55999755859375,132.10000610351562,381600
2026-08-17,133.16000366210938,133.16000366210938,130.22000122070312,131.74000549316406,374500
2026-08-18,132.75,133.47000122070312,131.22000122070312,131.72999572753906,500100
2026-08-19,133.0500030517578,134.3800048828125,132.2899932861328,132.92999267578125,390400
2026-08-20,131.4499969482422,133.8300018310547,130.89999389648438,132.9600067138672,420900
2026-08-21,134.0399932861328,135.1300048828125,133.10000610351562,134.8000030517578,400500
2026-08-24,135.36000061035156,136.33999633789062,134.38999938964844,134.75,282300
2026-08-25,135.58999633789062,135.58999633789062,133.22000122070312,134.72000122070312,280900
2026-08-26,135.0,136.63999938964844,134.44000244140625,135.24000549316406,281400
2026-08-27,133.77999877929688,134.69000244140625,132.25999450683594,132.86000061035156,295700
2026-08-28,133.5500030517578,133.66000366210938,132.0399932861328,132.99000549316406,325400
2026-08-31,132.2100067138672,132.44000244140625,130.8300018310547,131.6199951171875,389200
2026-09-01,131.64999389648438,132.07000732421875,130.77999877929688,130.9199981689453,418200
2026-09-02,131.27000427246094,132.25999450683594,129.69000244140625,130.3300018310547,472500
2026-09-03,130.64999389648438,130.64999389648438,126.98999786376953,128.30999755859375,340000
2026-09-04,127.52999877929688,128.47000122070312,126.52999877929688,127.41000366210938,324000
2026-09-08,126.19999694824219,126.98999786376953,124.25,124.33999633789062,362200
2026-09-09,123.97000122070312,123.97000122070312,121.08999633789062,122.11000061035156,383000
2026-09-10,122.05000305175781,123.12000274658203,120.73999786376953,123.05000305175781,435100
2026-09-11,124.8499984741211,125.5999984741211,123.05999755859375,124.83999633789062,491900
2026-09-14,125.27999877929688,126.20999908447266,124.0,124.91000366210938,423200
2026-09-15,124.8499984741211,124.86000061035156,123.41000366210938,124.68000030517578,474700
2026-09-16,124.83999633789062,126.25,123.19999694824219,124.70999908447266,461600
2026-09-17,125.66000366210938,126.22000122070312,124.55000305175781,125.5,551500
2026-09-18,125.48999786376953,125.7699966430664,124.41000366210938,124.44000244140625,821300
2026-09-21,124.83999633789062,125.9800033569336,123.31999969482422,123.4000015258789,424400
2026-09-22,124.72000122070312,125.80000305175781,123.83000183105469,125.44999694824219,417700
2026-09-23,125.43000030517578,125.72000122070312,124.5,124.73999786376953,335300
2026-09-24,124.51000213623047,124.98999786376953,122.31999969482422,123.37999725341797,377200
2026-09-25,123.76000213623047,124.05000305175781,122.41999816894531,123.87000274658203,325600
2026-09-28,122.88999938964844,124.58999633789062,122.08999633789062,124.44999694824219,713300
2026-09-29,,,,,409836
