Date,Open,High,Low,Close,Volume
2023-08-14,117.3792460522628,118.30265808105469,116.94639918641944,118.30265808105469,145700.0
2023-08-15,117.95637129779684,118.24494075189612,117.33114971162514,117.43695068359375,249000.0
2023-08-16,117.09068962905717,118.4661904693211,116.8598311066357,116.90792846679688,291100.0
2023-08-17,117.3119086093056,117.98523489377807,116.98487007521625,117.00410461425781,186600.0
2023-08-18,116.75399923570934,118.71625224874126,116.75399923570934,118.5912094116211,443100.0
2023-08-21,118.45655872220826,119.71663018629916,118.36998494954204,119.06254577636719,358800.0
2023-08-22,119.14912600366445,120.9189972448731,118.08142922757334,118.2641830444336,429600.0
2023-08-23,118.36999873369143,118.85094299292291,117.64858234484421,118.68742370605469,305000.0
2023-08-24,118.78360359604675,120.67852503204736,117.91790251632227,120.34186553955078,278400.0
2023-08-25,120.78431619879032,122.81390114359978,120.21680561182608,122.67923736572266,493000.0
2023-08-28,122.76582157262821,124.6415084737932,122.76582157262821,124.47798919677734,331900.0
2023-08-29,124.85310877370199,126.93079109909763,124.46834463348918,126.79612731933594,472400.0
2023-08-30,127.32513142846659,128.18121130637186,126.68066812058274,127.8253173828125,298900.0
2023-08-31,128.2004877793127,128.6333346339963,127.20013027788282,127.50792694091797,305800.0
2023-09-01,128.02734015187872,128.69103075802838,127.46944316985002,127.49829864501953,252000.0
2023-09-05,126.66144594880058,126.9500153780096,122.50609607084371,122.70809173583984,325300.0
2023-09-06,122.91972673122726,123.13133602720143,121.39032026937542,121.59232330322266,291100.0
2023-09-07,121.47689297594711,122.32335216826341,120.37071979304557,120.58233642578125,328600.0
2023-09-08,120.72661517649743,121.84240190476012,120.35147928747043,120.53423309326172,238800.0
2023-09-11,122.15020697473304,123.05438442733607,121.59231727500303,122.16944885253906,333500.0
2023-09-12,121.30374180391007,122.43877036353905,120.64003648639903,121.70773315429688,258000.0
2023-09-13,120.98631988463397,121.76544712808189,120.34185642798874,120.59194946289062,279300.0
2023-09-14,121.20755406828378,122.44839093096296,121.20755406828378,121.92897033691406,217900.0
2023-09-15,121.6692627655092,122.35220265507273,120.39957035952995,121.13060760498047,589200.0
2023-09-18,121.54423019858976,121.54423019858976,120.15910842445712,120.85166931152344,175100.0
2023-09-19,120.89975538209652,120.89975538209652,119.33187259288644,120.53423309326172,218600.0
2023-09-20,121.04403393623863,121.29412697753905,119.81281794618458,119.8801498413086,206200.0
2023-09-21,119.5915970075996,119.61083154828877,117.5331562384029,117.56201171875,335700.0
2023-09-22,117.66781134829976,118.21608745028,117.45619472321509,118.00447082519531,341200.0
2023-09-25,117.34076318501396,119.3992037620622,116.84058444889169,119.31263732910156,258800.0
2023-09-26,118.82208002776298,119.48578541206082,118.53351789357484,118.88941192626953,547000.0
2023-09-27,119.3126479723948,119.70701843321653,118.1872402117581,118.81246185302734,362400.0
2023-09-28,119.13949993050126,120.85166013877925,118.5623683479597,120.68814086914062,219300.0
2023-09-29,121.66926377216642,121.99630964992629,120.03405639924574,120.27452850341797,330900.0
2023-10-02,119.7839706824147,120.69776913733538,119.26455002499831,120.2841567993164,244100.0
2023-10-03,119.29339878482428,120.53423572898005,117.82171067436374,118.1872329711914,236300.0
2023-10-04,118.8413150678333,119.90901178172992,117.66781004256849,119.49539947509766,208200.0
2023-10-05,119.2356870928497,120.16872002997181,118.11990034706665,119.03369140625,466700.0
2023-10-06,118.8990326896935,121.86165089685026,118.6874160550928,121.59232330322266,491700.0
2023-10-09,121.02480176411956,122.3714470315645,120.89975891033677,122.10211944580078,275700.0
2023-10-10,122.3906880798059,123.70847793865926,121.68851359938441,121.71736907958984,322000.0
2023-10-11,122.66961669921875,122.83313595291355,121.82315761659957,122.66961669921875,212900.0
2023-10-12,122.37143953710256,122.54457973715071,120.29375713652479,120.6400375366211,189300.0
2023-10-13,121.19793048814316,121.84239391280202,120.62079895354378,121.16907501220703,324900.0
2023-10-16,122.50611121132462,122.57344310797819,121.36146162958764,121.8808822631836,275200.0
2023-10-17,121.2075666764976,123.44876120681954,121.2075666764976,122.62154388427734,314400.0
2023-10-18,122.03479307787752,122.8042994522595,121.46727506334268,121.9482192993164,287300.0
2023-10-19,121.2748918959895,122.61191619220571,120.61118654800225,120.938232421875,443900.0
2023-10-20,121.13061711466817,121.65965871645427,117.2830631776834,117.56201171875,446500.0
2023-10-23,117.08107007558768,118.46619187200963,116.59050488291709,116.86945343017578,379000.0
2023-10-24,117.47543620540878,119.05293270920211,117.08106574877378,118.63932037353516,312100.0
2023-10-25,118.15677276144453,119.4596516517281,117.63561973271062,118.09886932373047,431300.0
2023-10-26,117.02760662773419,121.01345262337937,117.02760662773419,119.12186431884766,576000.0
2023-10-27,119.16047518784606,119.51755620789429,116.15902425320523,116.94075012207031,364000.0
2023-10-30,117.66457911449282,118.05061923829989,116.63192601709312,117.90585327148438,283100.0
2023-10-31,118.23398596724621,118.60072002279092,117.57771998783277,118.00235748291016,422900.0
2023-11-01,117.847941489138,119.12186865336518,117.36539320930797,118.63932037353516,360500.0
2023-11-02,119.40174500651636,119.9518497393298,118.68757562918539,119.26663208007812,384300.0
2023-11-03,120.08697401221825,121.57322370656975,120.08697401221825,120.97486114501953,278000.0
2023-11-06,120.89763669523624,121.3415875698335,120.39578974927271,120.8204345703125,173500.0
2023-11-07,120.27033814314946,120.62741916445184,119.8360402653971,120.2027816772461,205000.0
2023-11-08,120.52125543592591,121.10996492498091,120.06766623895945,120.75288391113281,175800.0
2023-11-09,121.30297581014376,121.30297581014376,119.73951690200494,120.04834747314453,118600.0
2023-11-10,119.90359356052024,121.3994961613825,119.5658112399359,121.33193969726562,195600.0
2023-11-13,121.01344761610507,121.10031012853287,120.02905244156845,120.18346405029297,183100.0
2023-11-14,121.55391115797988,123.39724915782807,120.936249936579,123.3875961303711,267400.0
2023-11-15,123.3586407628021,124.30443862184565,122.90504420607215,123.25247955322266,388600.0
2023-11-16,123.1945687845745,124.13070619763076,122.41283561845891,123.09806060791016,217000.0
2023-11-17,124.07280612990299,124.57466044313415,123.1559673820683,123.46479797363281,162700.0
2023-11-20,123.00155090272261,123.1945746283093,122.01715567308845,122.87609100341797,213900.0
2023-11-21,123.0112053695368,123.82189030028484,122.76027820488832,123.44550323486328,160600.0
2023-11-22,123.96664452975432,124.69046691672392,122.91469286164748,124.08246612548828,174800.0
2023-11-24,124.46851389312098,124.46851389312098,123.62888453508685,124.04386901855469,65900.0
2023-11-27,123.35864729016578,123.82189689857947,122.42250240875883,122.56726837158203,367500.0
2023-11-28,122.56726027052797,122.57691329757223,121.10996243713889,121.22577667236328,218000.0
2023-11-29,121.25472870985266,121.98820414200175,120.55985802288006,120.99415588378906,331800.0
2023-11-30,121.07136390507863,122.69272646591232,120.45370267838986,122.46110534667969,301000.0
2023-12-01,122.00749831802362,124.05349819494825,122.00749831802362,123.62886810302734,218300.0
2023-12-04,123.00154595197841,124.38164160429274,122.4610942682931,123.93769073486328,192000.0
2023-12-05,123.77362656816942,124.19827138588248,121.48634520426313,121.5925064086914,178000.0
2023-12-06,121.9785500946843,122.85679147312398,121.48634880167852,121.9592514038086,179500.0
2023-12-07,121.83378385096688,122.67342048254547,121.59250971853534,122.07505798339844,254000.0
2023-12-08,121.94959920990867,123.04980867489485,121.2354298329936,122.87609100341797,265800.0
2023-12-11,122.81817779969143,123.2235165465339,121.93028345881054,123.11735534667969,338000.0
2023-12-12,123.19458223267412,123.62888011972512,122.25843735432503,123.030517578125,210300.0
2023-12-13,122.74097102242494,124.48780066384826,122.74097102242494,124.10175323486328,425000.0
2023-12-14,124.57465522525729,125.47218788178063,122.45143855446896,122.95329284667969,412900.0
2023-12-15,122.72169244407033,124.09212790759474,121.57322508471096,121.58287811279297,713000.0
2023-12-18,122.2873800147062,122.76992827805668,121.48634813039989,122.61551666259766,240500.0
2023-12-19,123.25248124676398,123.65782739941075,121.63111872548421,121.82414245605469,659100.0
2023-12-20,121.62145477599356,122.5093491306757,121.08100310513626,121.18716430664062,346400.0
2023-12-21,121.83380376451974,121.83380376451974,120.49231995798498,121.51532745361328,421900.0
2023-12-22,121.98819155385127,122.60585268673343,121.71796572860302,121.86272430419922,312200.0
2023-12-26,121.7372726533808,122.44179634238442,121.20646662994645,121.43809509277344,274700.0
2023-12-27,121.7179801620288,122.05576248364365,120.66602108831127,120.90729522705078,283100.0
2023-12-28,120.61776308128793,121.40914191198428,120.05800534752414,120.830078125,343600.0
2023-12-29,120.82043808829643,120.98450273280184,119.24732601714967,119.30523681640625,313500.0
2024-01-02,118.3304763924489,119.76846804211776,118.02164582279315,118.59104919433594,313100.0
2024-01-03,120.78183530676975,122.8181896264616,118.8516421971549,120.98450469970703,531700.0
2024-01-04,120.81079207973853,121.52496149850643,119.79743770955358,119.8843002319336,353300.0
2024-01-05,119.45964384127878,120.02905460628045,118.69721672111496,119.86498260498047,423000.0
2024-01-08,119.73953213187556,120.79149123065565,118.09887089459961,120.00975799560547,352400.0
2024-01-09,119.39208886536294,120.28962891792202,118.67791950665958,120.27997589111328,250300.0
2024-01-10,120.11591087750575,121.04240264450908,119.89394280330917,120.8204345703125,279600.0
2024-01-11,121.0038017297732,122.53830905966294,120.57916425839741,122.412841796875,323100.0
2024-01-12,123.4261986038641,123.50340809589281,121.52495720049569,122.01715850830078,231700.0
2024-01-16,121.48634817990717,122.39354127156845,121.12926717726768,122.3838882446289,257500.0
2024-01-17,121.54425926799404,122.82783205612957,121.4960014962835,122.26808166503906,336900.0
2024-01-18,122.876100447986,125.47220532952528,121.90135080738276,124.63257598876953,444200.0
2024-01-19,125.18268267158516,126.87160167039863,124.0535067247466,126.23463439941406,418000.0
2024-01-22,126.33114430629186,127.20938578312573,126.00301498292735,126.61103057861328,266200.0
2024-01-23,127.19973938013392,127.24799715710307,125.78104614923554,127.22869110107422,217800.0
2024-01-24,127.50855023197329,127.67261487673112,125.98369593067731,126.21532440185547,294400.0
2024-01-25,127.42171190609713,127.75950163040133,125.82930829427782,126.66893768310547,332300.0
2024-01-26,127.08389676698607,127.9621380935772,126.81367093206627,127.10320281982422,219900.0
2024-01-29,126.47588991643843,127.96213193699042,125.93543827260136,127.63400268554688,187800.0
2024-01-30,127.42168029315333,128.4446801513025,127.0356476121848,127.63400268554688,228400.0
2024-01-31,128.14711904243458,128.53436707997895,125.03953294065279,125.73656463623047,537500.0
2024-02-01,126.29805168978267,126.9273093818835,125.47516261057311,126.3367691040039,298800.0
2024-02-02,125.81398320967817,126.54005648247364,124.58449499825159,125.94951629638672,344800.0
2024-02-05,125.01048880090507,127.25646828783212,123.96494127747282,126.48198699951172,319500.0
2024-02-06,126.3173980926261,127.20804630504496,125.17504976756723,126.94667053222656,369700.0
2024-02-07,127.21774119888832,128.19551470320488,125.24281332521821,127.59529876708984,393000.0
2024-02-08,127.4403846693048,130.53829445292226,127.34356898744214,127.90506744384766,620700.0
2024-02-09,127.8954242006926,134.76892573911803,127.31455950628941,134.5269012451172,650900.0
2024-02-12,134.72049474500278,135.98870051220734,133.12312449577541,133.21994018554688,491300.0
2024-02-13,132.32926952401746,132.94885142624398,130.67381605056968,131.593505859375,275900.0
2024-02-14,131.9130184285909,133.07474776047272,130.8577952317336,132.7939910888672,335000.0
2024-02-15,132.7939868427026,133.41356890629376,130.27694117211416,130.73193359375,471400.0
2024-02-16,131.05139603090558,133.5974980024858,130.7319219804335,133.1134490966797,453900.0
2024-02-20,132.76495920474014,135.66925320639436,132.58101822111487,135.23361206054688,373000.0
2024-02-21,134.6430432067918,135.6401827546635,134.5559179504535,135.53369140625,276300.0
2024-02-22,135.98871968077944,137.87650772141765,135.6014864111109,136.95681762695312,295700.0
2024-02-23,137.44085155268917,137.51830115254398,136.11456223867728,136.85031127929688,190300.0
2024-02-26,136.98584148427423,137.5279738997732,136.3081759649005,137.39244079589844,199200.0
2024-02-27,137.39243933350093,137.64413944601768,135.3400767046714,135.83380126953125,244600.0
2024-02-28,135.194869665944,136.7341565973834,134.88508601058652,135.93063354492188,189600.0
2024-02-29,136.14360929042408,137.1117071682836,135.36912803373622,135.97903442382812,250600.0
2024-03-01,135.41751376903366,136.2984714673089,135.1077154081465,135.81442260742188,151400.0
2024-03-04,136.20170952806765,137.58608257287685,136.0758520614475,137.4311981201172,260300.0
2024-03-05,137.73130314278708,138.64131760349056,137.2182123974122,137.97332763671875,190200.0
2024-03-06,138.37021994084103,139.05757592063267,137.93457885855102,138.50576782226562,184000.0
2024-03-07,139.89016108176327,140.50974321124528,139.25121285610905,140.03536987304688,250100.0
2024-03-08,140.09345993941886,140.44197579004816,138.40896419937695,138.52513122558594,185200.0
2024-03-11,138.23470289544156,138.80589192553307,137.4505459017938,138.18630981445312,226700.0
2024-03-12,138.24439416826982,138.2928020215548,136.9664977471601,137.86683654785156,242200.0
2024-03-13,138.43801987274543,138.43801987274543,136.43404983717252,136.65672302246094,336800.0
2024-03-14,136.8503260525416,137.10202620024066,135.88222810784958,136.4340362548828,235200.0
2024-03-15,135.5724352312238,137.86683749913811,135.2820176535157,136.50181579589844,599500.0
2024-03-18,136.43402821831805,136.79223448171572,134.49783244298447,134.8173065185547,299700.0
2024-03-19,134.44946494913435,135.843528536156,134.44946494913435,135.05935668945312,253000.0
2024-03-20,135.17550421499809,135.6014696220955,134.70113096218498,135.50465393066406,220000.0
2024-03-21,135.83380611845956,137.08266060945118,134.85603261400937,136.6373291015625,255800.0
2024-03-22,137.4795668432542,137.90553224987627,136.5502012033519,137.07296752929688,276000.0
2024-03-25,136.69541504364804,139.4544998568,136.66637328957285,138.39927673339844,316300.0
2024-03-26,138.27343080301986,139.7062116207552,138.07012373555634,138.63162231445312,314200.0
2024-03-27,139.08663687316903,140.5194177665606,139.08663687316903,140.04505920410156,218200.0
2024-03-28,140.19996040963187,140.71305117138155,139.0672727425207,139.29962158203125,247800.0
2024-04-01,139.20278768938965,139.20278768938965,137.58606600215256,137.75064086914062,204400.0
2024-04-02,137.31500593788894,137.31500593788894,135.91126690307195,136.14361572265625,202600.0
2024-04-03,136.18234355557956,136.68575865051397,135.40786220306578,136.38565063476562,258700.0
2024-04-04,137.3053243590496,138.1959726377349,136.47275958975655,137.22787475585938,403600.0
2024-04-05,136.86970117154823,138.2056663783431,136.45341134644306,137.20852661132812,288300.0
2024-04-08,137.1504324507475,137.83778848313548,135.91126827776824,136.02743530273438,312500.0
2024-04-09,135.94029261944223,136.59860681125565,134.91411130502746,135.83380126953125,242600.0
2024-04-10,134.54623575653343,135.74668241469655,134.03314507512525,134.9528350830078,200700.0
2024-04-11,134.8173252418579,135.5724405173476,134.03316820746505,134.6914825439453,265300.0
2024-04-12,133.76205397332316,134.5171689780137,131.62256638403272,132.822998046875,299200.0
2024-04-15,134.18804610778258,135.3497605952717,133.4329309523146,133.79112243652344,319600.0
2024-04-16,133.39420463004214,134.94316719612974,132.97792961895718,134.16868591308594,281700.0
2024-04-17,134.44945414271976,135.03030407595662,133.93636338762582,133.98475646972656,565400.0
2024-04-18,133.975102548815,134.9916085619391,133.81052763575764,134.67213439941406,246600.0
2024-04-19,134.6237091251192,135.45627401831655,134.34296719727521,134.894775390625,276600.0
2024-04-22,135.0980663323081,136.6470141255359,134.80763400482732,135.843505859375,298800.0
2024-04-23,135.31104215956182,136.65669759538656,135.06901769432713,135.6789093017578,417200.0
2024-04-24,135.88280137491373,136.80518972389316,135.58181289617383,135.94105529785156,559200.0
2024-04-25,135.7759941871754,137.14502060339382,134.88273282197122,136.10610961914062,694400.0
2024-04-26,137.87326188150567,144.19406594832364,137.77616210897216,139.16461181640625,489500.0
2024-04-29,140.68894676515575,143.71828418532212,140.17435067690909,142.12594604492188,676700.0
2024-04-30,141.50454336149315,141.85408171786466,139.8733594266455,140.18406677246094,585100.0
2024-05-01,140.7763334778744,142.93181744453807,140.37824526435972,141.15499877929688,359600.0
2024-05-02,141.52395235638076,142.46576363326017,141.06761019890962,141.67930603027344,356500.0
2024-05-03,142.83475678977553,142.8541797071833,140.63072234736188,142.54347229003906,303300.0
2024-05-06,143.465818493184,144.7474639874066,142.88326448108887,144.7086181640625,260200.0
2024-05-07,144.00958866873592,146.00971937546657,144.00958866873592,145.368896484375,392900.0
2024-05-08,145.36887962927,146.4854527186998,145.13584910988936,146.40777587890625,223500.0
2024-05-09,146.6116820419674,147.3204628465896,144.3105630316223,144.7474822998047,299100.0
2024-05-10,144.62127547863358,144.66982536296524,143.78626784030067,144.17465209960938,186300.0
2024-05-13,144.21346995257653,145.13585840929454,142.59200470826642,143.57264709472656,167500.0
2024-05-14,143.99014505242278,143.99984910137368,143.18426452924012,143.6017608642578,137600.0
2024-05-15,143.66003210063693,144.02897856662815,142.5046131956969,142.99978637695312,211100.0
2024-05-16,143.08718529410942,143.6017814537863,142.17450084023903,143.2522430419922,235500.0
2024-05-17,143.5532250739488,143.86391760755848,142.85414835414977,143.37844848632812,169500.0
2024-05-20,143.30079134207162,144.09696792166733,142.7667722722628,143.8639373779297,163400.0
2024-05-21,143.64060931065208,144.35909414501361,142.81530585917272,144.27171325683594,280400.0
2024-05-22,143.7668498771203,144.5047576961729,143.18428093579104,144.46591186523438,283300.0
2024-05-23,144.33967093846064,144.62123648711966,143.27163303249756,143.42698669433594,171700.0
2024-05-24,144.16492024192416,144.50475458627656,143.0774740445457,143.7862548828125,162300.0
2024-05-28,143.32990795502417,143.48526163962768,141.58223085693479,142.4463653564453,318400.0
2024-05-29,141.41713379039427,142.43662179776277,140.31026490633886,140.63067626953125,229700.0
2024-05-30,140.91228668269574,142.70851373087208,140.78605995699684,141.89292907714844,328100.0
2024-05-31,141.8443808876884,143.5338189608347,141.6793231449918,143.39788818359375,358900.0
2024-06-03,144.18433298516325,144.18433298516325,142.0288488421779,143.85421752929688,266200.0
2024-06-04,143.3590163849127,144.07751597180606,142.4366280767618,143.88333129882812,287900.0
2024-06-05,143.42700061426063,143.89304682966602,142.80560072193944,143.62118530273438,229200.0
2024-06-06,143.7085664873753,143.7085664873753,141.17441703689698,141.71815490722656,197600.0
2024-06-07,141.53367596430135,142.07739902580767,141.22296860610217,141.320068359375,179100.0
2024-06-10,140.62097903208888,141.5724943045568,139.80539451283065,141.35888671875,125800.0
2024-06-11,140.6986648827164,141.50454540530546,140.15494183502784,141.27151489257812,147700.0
2024-06-12,141.9900224631697,142.05798044025738,139.88308812796836,141.59193420410156,221300.0
2024-06-13,141.6501881317032,142.27158805169188,140.805476550794,141.59193420410156,232400.0
2024-06-14,140.8734504649213,141.1550309006414,139.50442375003365,140.5433349609375,141500.0
2024-06-17,140.6598313540665,142.41722736375868,140.3685617068692,142.07740783691406,303800.0
2024-06-18,142.22305259413477,143.39789457614634,142.2133485436648,142.4269561767578,219900.0
2024-06-20,142.3977978909361,143.24250937170754,141.436563753432,141.57249450683594,199900.0
2024-06-21,141.6307756362361,142.8638715174382,141.0870525181657,142.58230590820312,444100.0
2024-06-24,142.94153910100914,143.92218146002028,142.4075200677485,142.45606994628906,182900.0
2024-06-25,142.52403514640127,142.53375401180762,140.30059282386082,140.65013122558594,194500.0
2024-06-26,140.05785425717647,140.5821544372045,138.80535032884424,139.53355407714844,192400.0
2024-06-27,139.68885803222656,139.6985768949275,138.13536598004555,139.68885803222656,377300.0
2024-06-28,139.60153830210473,140.1258533960497,136.018772816416,136.7178497314453,435100.0
2024-07-01,137.27127014880173,137.36835509564582,134.36815911737452,134.5137939453125,306400.0
2024-07-02,134.45551784033776,136.41681715340104,133.7564411508368,136.31971740722656,259400.0
2024-07-03,136.78579030057608,137.2906675416146,136.4848018027494,137.11590576171875,143300.0
2024-07-05,136.89258674062816,137.32950598220694,135.66919508579755,136.80519104003906,207000.0
2024-07-08,137.53342224222834,138.3587258312191,137.38778740433332,137.39749145507812,249300.0
2024-07-09,136.76634544453174,137.16443363310623,135.68860352872045,135.9701690673828,238400.0
2024-07-10,136.65956823532298,137.51399869592782,136.48480644947725,137.18386840820312,142000.0
2024-07-11,137.09646742302462,139.13544351779265,136.6595482071003,137.96060180664062,244500.0
2024-07-12,139.2422698494713,141.2618233593471,139.2422698494713,140.38796997070312,263900.0
2024-07-15,140.55302268784044,141.45600300897715,138.98010738595784,139.2616729736328,319900.0
2024-07-16,139.66948303288666,141.07734063154754,139.66948303288666,140.3588409423828,178800.0
2024-07-17,140.14523913079555,141.5336886876332,140.14523913079555,140.65013122558594,242300.0
2024-07-18,140.40741934435977,142.97069643312764,140.39771529272758,142.0288848876953,434200.0
2024-07-19,142.32983440463798,142.32983440463798,140.45593069491323,141.69873046875,251200.0
2024-07-22,141.74729152284237,143.2716569904321,141.0287918281976,142.91241455078125,235700.0
2024-07-23,143.57265645199828,144.1940564353192,141.43659493529168,141.79583740234375,234500.0
2024-07-24,141.82493755281683,142.36866052669882,139.7179888060143,139.95101928710938,250600.0
2024-07-25,139.11343221874438,140.30168787194964,137.54532532307127,137.8083038330078,558100.0
2024-07-26,139.40562054037346,147.35327797180082,138.64591810105864,142.84376525878906,562800.0
2024-07-29,142.76584597383152,144.4897929937424,141.39253199421196,143.9541015625,390900.0
2024-07-30,143.5450029487803,144.05146123367598,141.62626348843233,141.95741271972656,411000.0
2024-07-31,142.68793548619507,144.97679227316166,141.62630185383244,143.1554412841797,280600.0
2024-08-01,143.0580564170797,145.64882955447564,141.64577481833908,143.2041473388672,335300.0
2024-08-02,142.76584278576115,143.17491218000953,140.00948044813856,141.8990020751953,213500.0
2024-08-05,139.69780574748174,139.69780574748174,135.85059153457982,137.0193634033203,448500.0
2024-08-06,137.65246713764915,142.28860227483594,137.43819054803106,141.15878295898438,476000.0
2024-08-07,142.21068163315522,143.42815549610452,139.7367812828085,139.8634033203125,353600.0
2024-08-08,140.70101663202263,142.356778003838,140.70101663202263,141.7723846435547,268600.0
2024-08-09,141.6263160680969,141.6263160680969,139.7367940818522,140.2042999267578,263200.0
2024-08-12,140.22374527361563,140.42827252274284,139.05497355052955,139.56143188476562,221100.0
2024-08-13,139.7757349256636,141.51916583268488,139.37641479063032,140.6133575439453,212000.0
2024-08-14,140.37960449405662,141.04190311093822,139.75625849980418,140.15557861328125,115700.0
2024-08-15,141.22696922822865,143.50607675102486,141.22696922822865,143.18466186523438,277500.0
2024-08-16,142.30807861002003,143.01907915033655,141.8210890883735,142.90220642089844,250600.0
2024-08-19,142.51262572122243,143.88592492526362,142.12302517326572,143.1457061767578,191200.0
2024-08-20,143.1554262192904,144.45082004519588,143.1554262192904,144.2560272216797,387200.0
2024-08-21,144.3144557805946,145.67803519496948,143.62293906523604,145.44427490234375,267300.0
2024-08-22,145.67805355296156,146.48644308563473,144.8014634914536,145.11314392089844,200400.0
2024-08-23,145.76571861816686,146.61307569653127,145.55144202289785,146.52542114257812,221400.0
2024-08-26,146.75915922191393,148.6973829226023,146.23321706296485,146.25270080566406,235500.0
2024-08-27,146.10657244845748,147.5967590072151,145.9409978154554,147.26560974121094,208300.0
2024-08-28,147.00264345528416,148.01558993867803,147.00264345528416,147.59677124023438,249000.0
2024-08-29,148.58049863148904,148.9311316640923,147.27537034525355,148.31752014160156,187100.0
2024-08-30,148.23959762370004,149.4473369078232,147.69417177336692,149.20384216308594,178500.0
2024-09-03,148.15194689459446,148.41492538696468,145.83387210929124,146.13580322265625,362400.0
2024-09-04,145.7072750829975,146.97343598691867,145.7072750829975,146.807861328125,175800.0
2024-09-05,147.14874398418533,147.8110425475091,146.0481429967178,146.79811096191406,200600.0
2024-09-06,146.46697415286368,149.13566723576417,146.46697415286368,148.41493225097656,319100.0
2024-09-09,148.59998302653705,149.0772232245831,147.49938200179562,147.9571533203125,241500.0
2024-09-10,147.9181836882304,148.8142425709734,147.4993798583381,147.5675506591797,158100.0
2024-09-11,146.8663066160262,146.95397603273526,144.76252298810905,146.91500854492188,178000.0
2024-09-12,146.9637098345748,148.05456170073086,146.06765082141203,148.00587463378906,200400.0
2024-09-13,148.22986559888577,149.02852064652984,147.9474033678148,148.31752014160156,138600.0
2024-09-16,149.0577507849576,149.18437282019818,148.11300475699895,149.00906372070312,182900.0
2024-09-17,149.99278031830573,151.52193462791402,147.91820009450953,149.0480194091797,259900.0
2024-09-18,149.75900813476628,151.4440025327287,148.73634205746214,149.08697509765625,214200.0
2024-09-19,150.98625109226774,154.67762550954814,150.98625109226774,152.81732177734375,412400.0
2024-09-20,152.24267408275566,152.24267408275566,150.46029050724783,151.85308837890625,663300.0
2024-09-23,152.10629117339244,152.8270409482074,150.7135084054571,151.90176391601562,315800.0
2024-09-24,152.1160493204721,152.99263943106746,151.96995839957702,152.55435180664062,246200.0
2024-09-25,153.2068961113986,153.7620564003903,151.8140984456662,153.05105590820312,284100.0
2024-09-26,153.83025116800434,154.92110293146314,153.59649084937433,154.25880432128906,371600.0
2024-09-27,154.55100141706893,157.3463316298126,154.1419319653425,155.72952270507812,354300.0
2024-09-30,155.14510798319304,156.24570900619995,154.7944749495995,156.02169799804688,289800.0
2024-10-01,156.3625791144633,156.3625791144633,154.91135994387946,155.8074188232422,192200.0
2024-10-02,155.70028846125726,155.94378321896212,153.84973424739667,154.61917114257812,186900.0
2024-10-03,153.8789526282023,156.2846820263738,152.564074990201,154.80422973632812,367000.0
2024-10-04,155.77818912671566,157.2683756689615,155.18406139759068,156.4015350341797,350500.0
2024-10-07,155.2424969824321,155.4859917085393,153.89840133856404,154.5607147216797,223300.0
2024-10-08,154.16139329533596,154.8821430979149,153.01210522116568,154.54124450683594,205900.0
2024-10-09,154.22961633248374,155.88537804380562,154.00559041012002,155.5444793701172,152600.0
2024-10-10,153.93739633476548,155.23279029262568,153.93739633476548,155.0769500732422,168500.0
2024-10-11,156.7521704793874,157.70666566406467,156.17752648077732,157.34629821777344,194400.0
2024-10-14,160.69678791517742,163.39469883242896,159.2066013513777,162.83953857421875,469700.0
2024-10-15,162.96615916864047,165.2452662626044,162.1577548858949,164.29075622558594,397300.0
2024-10-16,164.31025487859057,164.79724438022347,161.6025944384509,161.71946716308594,330000.0
2024-10-17,162.63500734074424,163.94015048027507,162.18698532860228,163.52133178710938,238200.0
2024-10-18,164.69986730082573,164.69986730082573,163.414207789957,164.24209594726562,171500.0
2024-10-21,164.0862524476999,164.1057361900711,161.97271968352462,162.00193786621094,217900.0
2024-10-22,161.40781358966652,162.0408940440798,160.52148906409494,161.49546813964844,228500.0
2024-10-23,162.17724687078498,163.6089972685699,161.83636311905678,163.28758239746094,318100.0
2024-10-24,164.38138841449273,164.3911490539813,162.26215240803288,162.65280151367188,547300.0
2024-10-25,164.9673259462908,165.8755720020447,160.75818090850115,164.9575653076172,518900.0
2024-10-28,165.92439581087592,167.3990718969887,164.81107199246878,165.14312744140625,350000.0
2024-10-29,165.0747671080742,165.52400985615543,163.71729312603756,164.7524871826172,338100.0
2024-10-30,164.41068693257148,166.2173887714383,164.18605810635694,165.07476806640625,290300.0
2024-10-31,165.13335357792894,166.29551040666678,163.93213929101648,163.98097229003906,329900.0
2024-11-01,164.16653293752452,166.98890749293048,163.69775401702358,165.4458770751953,316300.0
2024-11-04,165.66072177477935,166.5787284860389,164.24463934900223,164.32276916503906,191800.0
2024-11-05,163.81495853194275,166.37364684373878,163.81495853194275,166.32481384277344,206200.0
2024-11-06,171.05154898002016,171.05154898002016,168.1119872286225,169.10812377929688,264100.0
2024-11-07,170.12376575088302,171.3542916404713,169.4792059898356,170.62184143066406,412300.0
2024-11-08,170.61209897781401,173.6786238548333,170.40702122427004,171.6472930908203,309200.0
2024-11-11,172.19418764538844,173.86416596467407,171.78400236870633,172.0281524658203,189100.0
2024-11-12,172.51646680557812,173.09267240733516,170.85624898942092,171.5886993408203,179800.0
2024-11-13,171.3933868408203,172.26256068514002,170.95391959849974,171.3933868408203,168400.0
2024-11-14,171.05155682058597,171.67658049046,169.8405818424337,170.02613830566406,198200.0
2024-11-15,168.92257425336157,169.69408202115162,162.28168847937133,162.59420776367188,620500.0
2024-11-18,162.49655239968402,163.8930988274997,160.4847578059515,162.78953552246094,384400.0
2024-11-19,162.52583437609178,163.74658485803732,162.31098109913023,162.99459838867188,287600.0
2024-11-20,163.0922544076903,164.98686142400987,161.77383800717232,164.78176879882812,221800.0
2024-11-21,164.74273502870884,166.24669318990152,163.81496756616045,165.90489196777344,205100.0
2024-11-22,166.1978542572136,168.04364337816776,166.1978542572136,167.49673461914062,241600.0
2024-11-25,168.0241100492806,169.94801412387145,167.7213662946961,168.4635772705078,270100.0
2024-11-26,168.81514749207574,168.81514749207574,167.1549297751935,168.0143280029297,140300.0
2024-11-27,168.6296004490124,169.81129356804752,167.50651587532045,167.7115936279297,167200.0
2024-11-29,168.55144377295503,169.43039299219728,168.0631436183998,168.9127960205078,117300.0
2024-12-02,168.93233680546206,169.05929962886407,166.84241249869427,168.7174835205078,170900.0
2024-12-03,169.39132382716835,169.39132382716835,167.0865464581629,168.3658905029297,160100.0
2024-12-04,167.86783536473908,168.84443572520686,167.02795845866723,168.55145263671875,173400.0
2024-12-05,167.98503908384095,168.40498502885572,166.5396745813458,167.09634399414062,245000.0
2024-12-06,167.58463897320985,168.61005749857284,166.85218865409922,167.14515686035156,209200.0
2024-12-09,167.5455962522846,169.41090697136914,166.24671566839683,166.79360961914062,301700.0
2024-12-10,166.72521015388972,167.3599944100707,164.25441250187913,166.9107666015625,287000.0
2024-12-11,167.85806889036164,170.02612280736926,167.73110607935809,168.2779998779297,418600.0
2024-12-12,167.6529998247031,168.5612460049008,166.7838260080303,167.6237030029297,178300.0
2024-12-13,166.9107848371899,166.99867530040407,165.8462939336225,166.21739196777344,153200.0
2024-12-16,166.158796503823,166.9303042864774,163.66846242787886,163.70753479003906,236100.0
2024-12-17,162.9946031274387,163.0043786686916,159.02960783108298,159.2737579345703,511900.0
2024-12-18,159.8596998530706,160.57261387443967,154.21495151029833,154.5079345703125,468600.0
2024-12-19,154.80091960788565,157.78932926379758,154.52747269585277,155.15249633789062,404700.0
2024-12-20,155.00602554523715,156.04121964416362,153.78527497542004,154.47865295410156,730200.0
2024-12-23,153.49229809203675,155.1818127767919,153.28722033295332,154.8107147216797,194900.0
2024-12-24,155.06460748481138,155.6896311333145,154.2247305600973,155.62127685546875,100500.0
2024-12-26,154.71303442348506,155.89472747069453,154.71303442348506,155.1329803466797,164500.0
2024-12-27,154.1270910423129,155.84590247939389,153.92199838988887,154.44935607910156,145000.0
2024-12-30,153.32623200389196,153.80477146840184,151.37303159619907,153.0625457763672,221700.0
2024-12-31,153.59970058644706,154.54700411025723,152.52543424962974,153.42391967773438,317100.0
2025-01-02,153.96102932277924,154.41027201167452,149.85931109671645,150.55270385742188,239400.0
2025-01-03,150.43553065073638,152.07622719806142,149.29290988290282,151.8613739013672,250700.0
2025-01-06,150.39643535844235,151.02145890931706,147.89634115494354,149.34170532226562,369000.0
2025-01-07,152.271507414802,152.40823085213694,149.02920237154262,149.8397674560547,361200.0
2025-01-08,149.3124422881475,150.6503801368408,148.5311589473614,150.54295349121094,228600.0
2025-01-10,149.14641510020002,150.6894455288929,149.00969163951783,149.8593292236328,350800.0
2025-01-13,149.35145873302963,151.08004522826457,149.35145873302963,150.28900146484375,349300.0
2025-01-14,151.18750459843608,151.81252825447513,149.8886242863141,150.9921875,196900.0
2025-01-15,152.4668462198905,153.24812950251066,150.5624784634495,151.91995239257812,206100.0
2025-01-16,152.24225510770867,153.4923025864324,151.6758250155149,152.75009155273438,346300.0
2025-01-17,153.29697420180517,154.25403847264764,152.03715127326387,152.43756103515625,231900.0
2025-01-21,153.0528143054371,156.50997312910235,153.0528143054371,156.0900421142578,270900.0
2025-01-22,155.61149546068765,156.98850552412839,154.63489511528093,155.3478240966797,280000.0
2025-01-23,154.7521036088612,156.070505187951,154.03917459835165,155.88494873046875,149800.0
2025-01-24,155.9142573921176,156.7150769217103,153.54112542846482,154.59585571289062,329600.0
2025-01-27,154.54701307242723,155.201333551255,152.98444647403235,154.75210571289062,317000.0
2025-01-28,153.88291140841034,156.59785896178445,153.88291140841034,154.7130126953125,204300.0
2025-01-29,155.0646061385479,155.10367849846844,152.95514575501196,153.43368530273438,265800.0
2025-01-30,154.12706586283983,154.96692781170574,152.9160761312112,154.4298095703125,274200.0
2025-01-31,154.20518277543422,155.66032259995123,153.09185901964062,153.4727325439453,834100.0
2025-02-03,150.96288932286944,153.0821103704106,150.53318276913035,152.3301239013672,364600.0
2025-02-04,152.43753017168066,154.75208290837918,152.43753017168066,154.00985717773438,302400.0
2025-02-05,155.01864663986422,156.3702165851502,154.52894911700784,155.05783081054688,262600.0
2025-02-06,156.54651300778121,156.54651300778121,152.16861560867,153.2263641357422,446600.0
2025-02-07,154.37223282693162,154.64646222731156,139.11325716004725,140.22976684570312,1221500.0
2025-02-10,141.28754664505917,141.6205523719065,137.99677816426612,140.32774353027344,621900.0
2025-02-11,139.33856189367694,140.12208105720353,137.36996794046337,139.35813903808594,377300.0
2025-02-12,138.06531924654766,140.53339891858562,137.0467400415367,138.7802734375,423500.0
2025-02-13,139.80863972660936,140.81741540614397,138.54522672072014,139.82823181152344,665900.0
2025-02-14,140.72929960574803,142.31591505799216,139.7792850599418,141.80662536621094,512800.0
2025-02-18,141.806629148029,144.25511722944964,140.93496798881864,143.87315368652344,489600.0
2025-02-19,143.12880426353559,144.45099367199094,142.6097260381441,144.01025390625,331000.0
2025-02-20,143.94170202111488,144.3824268363581,142.91333415595835,143.6576690673828,283100.0
2025-02-21,144.0004768600077,144.3530597341893,142.20818182828341,143.32469177246094,451900.0
2025-02-24,143.1679734070286,144.25510260272546,141.38548203557013,142.60972595214844,353300.0
2025-02-25,142.8741632870377,145.27367831527678,142.7174564829414,144.6664581298828,336700.0
2025-02-26,143.62828832707837,146.10615678438293,143.59890766903789,143.61849975585938,735600.0
2025-02-27,143.21693102979327,144.14735331926948,142.3648621360305,142.62930297851562,262800.0
2025-02-28,143.14840249829248,143.92211811173567,141.64992907469428,143.7262420654297,348700.0
2025-03-03,143.9417092483485,145.7731734330009,142.6880846270143,143.5695343017578,394100.0
2025-03-04,142.54115535917794,144.90150112160728,142.14940329945776,142.93292236328125,490100.0
2025-03-05,143.0406700510276,145.78297956351986,143.0406700510276,145.3814239501953,445100.0
2025-03-06,144.5195432997619,148.37836251128888,144.02984573371802,148.0355682373047,471700.0
2025-03-07,147.40875736971992,150.20003950079644,146.10616003817648,149.63198852539062,480200.0
2025-03-10,148.93662196596816,150.82684736023063,147.14432711634848,147.467529296875,391100.0
2025-03-11,147.24227347370973,147.4577416172004,144.2355379258109,144.84275817871094,304000.0
2025-03-12,145.18554224213253,145.18554224213253,142.56075547219578,143.0210723876953,299700.0
2025-03-13,143.39323247450463,144.16694798641166,140.79782663230102,141.7772216796875,238400.0
2025-03-14,142.237534136815,143.86333345171332,141.56174918397278,143.63807678222656,223600.0
2025-03-17,143.49118010431383,144.95048427871978,142.854579225438,144.7937774658203,225200.0
2025-03-18,144.35305965504074,144.49017438690367,142.77623276642447,143.2855224609375,219900.0
2025-03-19,143.32468002289772,144.42161273286254,142.4726110403041,143.9514923095703,279600.0
2025-03-20,143.1190209381293,144.38243413158088,140.76846356409283,142.2081756591797,332800.0
2025-03-21,141.0329025919921,142.4628260965788,139.42669513246977,141.8360137939453,601900.0
2025-03-24,142.74682361184875,145.12674632792306,141.9241353848884,144.940673828125,463800.0
2025-03-25,145.43039772394542,146.15514060303397,142.92313347424803,144.17677307128906,325200.0
2025-03-26,144.0200657855328,145.63606187248132,143.2855193924863,145.4989471435547,630400.0
2025-03-27,145.22471455574868,146.80154137661276,144.0004705937233,146.27267456054688,312700.0
2025-03-28,146.2138845778836,146.90926165859608,142.7566211490686,143.9025115966797,239800.0
2025-03-31,143.5597480313838,146.01802456611082,143.08964252694352,145.32266235351562,372500.0
2025-04-01,145.8123486528671,146.93864705079392,144.34325598893645,146.02781677246094,240000.0
2025-04-02,144.950476293581,148.0159877703709,144.950476293581,147.4283447265625,247600.0
2025-04-03,143.73601082079833,146.95822887417515,143.4422042640377,145.60665893554688,352900.0
2025-04-04,142.22775504246812,144.91130294785953,137.1544807452422,137.29159545898438,531600.0
2025-04-07,133.53071403995318,139.19161608543078,128.1538449204054,131.8755340576172,629900.0
2025-04-08,134.5493112573588,136.43953673434598,128.57499483049722,130.9059600830078,473800.0
2025-04-09,130.43584131939255,141.44424838924863,128.6141806532637,140.78805541992188,491800.0
2025-04-10,137.11531475806592,140.41587148111097,134.73539182521205,137.85964965820312,309000.0
2025-04-11,137.96737957378522,141.7282680233526,136.86067330008663,141.140625,203000.0
2025-04-14,142.79581425798335,143.38344237476502,140.82722046414764,142.7860107421875,249300.0
2025-04-15,143.0896488919898,143.52057023933776,140.807656215774,140.97415161132812,250700.0
2025-04-16,141.09166473999363,142.81540979066028,139.63237551205373,142.01229858398438,307700.0
2025-04-17,142.40403652449308,142.7566193457953,137.81068622127157,140.86639404296875,390600.0
2025-04-21,140.347331860725,141.08187824351555,138.19266546008294,139.6421661376953,291600.0
2025-04-22,141.52257641333196,143.79477996918828,140.63132338352375,143.01126098632812,217800.0
2025-04-23,144.823151790697,146.24328667195422,144.1865509396658,144.99945068359375,537000.0
2025-04-24,144.88190918887037,148.86805439769142,142.4628170537404,148.3391876220703,424500.0
2025-04-25,147.74175781185858,149.84745131334506,144.52934305768525,145.98863220214844,220500.0
2025-04-28,146.71339348881767,147.91804531450325,145.22470870652703,146.61544799804688,235200.0
2025-04-29,146.67421273095528,148.84847116613122,145.939666366217,147.20309448242188,359900.0
2025-04-30,145.9984330116698,146.89947469973708,144.17675754933848,146.86029052734375,556200.0
2025-05-01,145.82883124627438,147.8721067076984,144.36514960993844,145.66183471679688,445300.0
2025-05-02,150.2886872456017,150.29850528114721,145.18049076089244,149.316162109375,431600.0
2025-05-05,148.7562234700928,150.51462619082648,148.21594670199013,148.8053436279297,267600.0
2025-05-06,147.59703523807684,149.35542260665764,146.78168875218103,148.2552032470703,312000.0
2025-05-07,149.1982877610097,150.44585281383766,147.96052575449374,148.71693420410156,318400.0
2025-05-08,149.10985945249004,151.84078718705774,148.5695827139862,150.6521453857422,302500.0
2025-05-09,151.1924328459138,151.5755460622504,150.23955882257493,150.61285400390625,231600.0
2025-05-12,153.03920863277799,153.82508602684115,150.98611537017845,152.77398681640625,352500.0
2025-05-13,153.55003919391905,153.55003919391905,150.49495171985274,150.92718505859375,339400.0
2025-05-14,150.90754450151144,150.90754450151144,148.3043412429943,149.7876739501953,350100.0
2025-05-15,149.65998239804614,152.7347062134107,149.65998239804614,152.2140655517578,278100.0
2025-05-16,152.4399964689241,154.3752135929202,151.86041763202704,154.23768615722656,278600.0
2025-05-19,153.59918681809296,155.54422220096674,153.55006665911085,155.288818359375,185400.0
2025-05-20,157.43029958325823,157.43029958325823,155.12180229520027,155.73085021972656,388100.0
2025-05-21,154.09032526701444,154.86636965019244,153.07851316508325,153.68756103515625,319800.0
2025-05-22,153.5991755437167,154.4832783830283,152.81329802579143,153.88404846191406,278900.0
2025-05-23,152.3810559407016,153.4223372220158,151.53624028030902,153.18658447265625,260500.0
2025-05-27,154.25734853178614,155.64245601461047,153.92335544765425,155.36740112304688,352800.0
2025-05-28,155.36739421063615,156.03538034918074,154.4832763933447,154.6208038330078,364400.0
2025-05-29,155.0432217337395,155.86838638532782,154.05106054476073,155.53439331054688,232100.0
2025-05-30,155.44597065814978,155.9764293133438,153.77597547059216,155.60313415527344,335100.0
2025-06-02,154.75833131600515,156.2613301068848,152.51859016122646,154.13946533203125,349600.0
2025-06-03,153.4223415376803,154.66010346409962,153.24552697068694,153.5009307861328,397800.0
2025-06-04,153.72687442684654,153.7563435201819,147.63633532186296,147.7542266845703,831900.0
2025-06-05,148.90357998413,150.632498572694,146.41825295522108,149.79751586914062,482400.0
2025-06-06,151.64427796565943,151.75233629085326,149.5224285635975,150.60299682617188,264700.0
2025-06-09,150.0136191980335,150.4753066580511,148.6874500367206,148.9232177734375,388400.0
2025-06-10,149.47334506320036,150.2985097546009,148.1962959040132,149.83680725097656,323500.0
2025-06-11,150.29849644880608,150.8780752886444,148.92322208489034,149.23756408691406,380800.0
2025-06-12,148.73658814675593,151.8899014382214,148.73658814675593,151.6246795654297,337200.0
2025-06-13,150.2985051515068,151.00579343372206,148.06858195648448,148.49099731445312,361200.0
2025-06-16,148.5695758002576,150.20025395390124,148.4516844355203,149.01162719726562,346200.0
2025-06-17,147.9998142251002,148.58921108822153,146.49683048956007,146.81117248535156,379700.0
2025-06-18,146.48700188455078,148.06857491409224,146.48700188455078,147.0567626953125,383200.0
2025-06-20,147.6363309167007,148.10786637472864,146.35929693863002,147.6461639404297,570500.0
2025-06-23,146.85047583401547,151.2218996436103,146.85047583401547,151.0745391845703,356500.0
2025-06-24,151.84077408220156,151.84077408220156,150.47530283808342,151.1531219482422,246600.0
2025-06-25,151.14331042765082,151.80147850793904,150.0725600428252,151.21206665039062,264700.0
2025-06-26,151.80148526751537,152.83294856947208,150.4163778331554,151.7523651123047,658200.0
2025-06-27,151.9292038692901,153.35359852041546,151.50678849615022,153.0687255859375,643100.0
2025-06-30,153.27499173184543,153.73669418509692,151.8800663373244,153.6679229736328,315500.0
2025-07-01,153.66793021902077,156.9784367941011,153.20624273336693,156.20237731933594,338300.0
2025-07-02,156.21219361043833,157.69552619700025,155.8487164947486,157.48924255371094,293500.0
2025-07-03,157.76431481113727,158.51089020387988,156.99808835850575,158.196533203125,235100.0
2025-07-07,158.1081326731942,159.50305819756994,157.71520139482857,158.1179656982422,313900.0
2025-07-08,158.05899691367227,159.70934109650693,157.02754866243734,157.22401428222656,342700.0
2025-07-09,157.10611832400417,157.18470756749457,155.30844371561136,156.90965270996094,252800.0
2025-07-10,156.37920902223024,157.52854871323547,155.53439331054688,155.53439331054688,361600.0
2025-07-11,155.76033435806713,155.76033435806713,153.86441918956936,155.1119842529297,292000.0
2025-07-14,154.3654022940558,156.13362296539574,153.92335087356255,154.77798461914062,276600.0
2025-07-15,154.95479334988428,155.21019713887813,151.34959626569866,151.43800354003906,254200.0
2025-07-16,151.2022641344678,152.8624265472358,150.83880194564915,152.24354553222656,261900.0
2025-07-17,152.00777788286257,153.6482890740105,151.78182817574609,153.27499389648438,397700.0
2025-07-18,154.08052265083427,154.43416676966828,152.18459265589,153.6188201904297,243100.0
2025-07-21,153.65810471165034,153.9036904847458,152.49894705753542,152.70523071289062,205900.0
2025-07-22,153.35357548550758,156.54619042612177,152.48910879729814,156.3595428466797,449900.0
2025-07-23,157.24368095923748,158.99225063096037,156.33009400189493,158.80560302734375,450500.0
2025-07-24,158.559320268112,161.82979531304568,157.40675735764995,159.406494140625,431900.0
2025-07-25,159.63305506440543,160.65753702914088,158.3819926877325,158.5888671875,296300.0
2025-07-28,158.79573614749467,159.56410142477418,155.80108366056007,156.33302307128906,308500.0
2025-07-29,156.67779828906407,157.21959813532774,154.8750906357904,156.45123291015625,388200.0
2025-07-30,156.43152305866946,156.55957390550213,152.60938790987095,154.4514923095703,580700.0
2025-07-31,153.456563501654,155.0031544025075,152.86550639902828,154.79627990722656,679700.0
2025-08-01,154.6288158726098,155.76165777291718,138.9856590147076,139.24179077148438,1012300.0
2025-08-04,140.98539693056597,140.98539693056597,135.03548860220042,137.05491638183594,839000.0
2025-08-05,137.26176707147744,138.9659752764255,135.63638251685612,138.12864685058594,540800.0
2025-08-06,138.21731427393004,138.6605996470306,135.4984842918658,136.4737091064453,515300.0
2025-08-07,137.71491162131494,139.37970798596095,136.83818640949156,138.39462280273438,564000.0
2025-08-08,138.59163887027924,139.93135534040795,138.48327889728324,138.65074157714844,428700.0
2025-08-11,139.222090228796,139.5077583171329,137.12385398637957,137.7838592529297,349500.0
2025-08-12,138.12862654943748,138.98564573069308,137.15338694127408,137.399658203125,286100.0
2025-08-13,137.60654859738395,139.33044762978915,137.17310872138614,139.32058715820312,729900.0
2025-08-14,138.09910131689176,138.09910131689176,134.40503169053025,136.2766876220703,875800.0
2025-08-15,136.29636975306326,136.877566332041,135.81367266154328,136.6510009765625,770500.0
2025-08-18,136.81848979115895,137.4883555774846,135.30146511966976,135.83340454101562,529500.0
2025-08-19,136.20773671589527,138.4241784468644,136.20773671589527,137.50804138183594,333100.0
2025-08-20,137.8232781418471,139.14328874260568,137.18296372359896,139.07432556152344,519200.0
2025-08-21,138.53254347475354,139.78359091939785,138.14836082862038,138.54238891601562,270400.0
2025-08-22,139.15312448451428,141.19225798353852,139.08417633944555,139.32058715820312,356500.0
2025-08-25,138.8674588166062,139.4979127296023,136.88744301904194,137.47848510742188,245800.0
2025-08-26,136.9957973337368,138.06953652648775,135.95159446141804,137.62625122070312,442900.0
2025-08-27,137.01548945470773,138.47342629437426,136.95638675089546,137.3602752685547,729100.0
2025-08-28,138.07940468549748,138.07940468549748,135.35071419599137,136.81849670410156,320800.0
2025-08-29,137.09429553325865,137.7838521169858,136.2865335440943,137.19281005859375,370700.0
2025-09-02,135.37040364310914,136.46384879424832,134.13904716800675,134.37547302246094,310600.0
2025-09-03,134.0503903916783,134.1488898889654,132.43485133034417,133.20321655273438,382300.0
2025-09-04,134.3163671782823,136.41458834161003,133.0258929963137,136.3948974609375,401800.0
2025-09-05,136.94653328871905,138.71968945525342,135.5772656161853,136.552490234375,440800.0
2025-09-08,136.52295752982062,137.91193130257207,135.62652636886406,136.23728942871094,616100.0
2025-09-09,136.1978803964661,137.39968559639797,133.08502244977814,135.0059356689453,637100.0
2025-09-10,134.09965957050477,135.40982475360394,132.83875165602893,134.21786499023438,685100.0
2025-09-11,134.71040519706986,136.2175843964125,133.84352538471833,135.05519104003906,477500.0
2025-09-12,134.58234162242087,135.00593609481896,133.20322828923454,133.21307373046875,261300.0
2025-09-15,133.9420357302436,134.13904976383114,132.62202517087903,132.8387451171875,298000.0
2025-09-16,132.7796408395311,133.40024938789284,132.0999446094311,133.19338989257812,474800.0
2025-09-17,133.40021279614652,135.0256121123868,132.18856241946168,132.64169311523438,377400.0
2025-09-18,132.88797027728828,133.48887277280454,132.0703628945154,132.4939422607422,254800.0
2025-09-19,132.65158018177598,133.0850200863436,131.35126046807318,132.4348602294922,877200.0
2025-09-22,132.11962230163485,132.92739938115005,130.691251766929,130.74050903320312,402100.0
2025-09-23,131.0261738005905,131.95215627068484,130.00169183165633,130.0509490966797,319700.0
2025-09-24,130.03125417731107,131.3217134615017,129.38109429893456,129.53871154785156,353300.0
2025-09-25,129.53870141670419,130.54349251095573,128.32705085173455,128.8688507080078,388700.0
2025-09-26,129.37123644965243,130.4548211118124,129.00675974879576,130.31690979003906,274400.0
2025-09-29,130.42527680922657,130.7010994676822,129.4007947965638,130.29722595214844,540600.0
2025-09-30,129.74557555443596,131.76498814664785,129.74557555443596,131.66648864746094,310400.0
2025-10-01,131.3413962300209,132.3560326654084,130.33660523425266,132.13931274414062,310100.0
2025-10-02,131.66650104495739,132.38560908468045,130.9769443608936,131.1936492919922,398500.0
2025-10-03,130.49423360821496,131.58767874762543,130.45482178395852,131.23304748535156,402000.0
2025-10-06,130.90798617122863,131.2133602121639,129.45006412198484,129.91305541992188,447100.0
2025-10-07,130.13959122892322,130.53361925058735,127.8738925263408,128.6422576904297,438800.0
2025-10-08,129.2234697553329,130.04109227782575,128.31719317203184,129.64706420898438,361300.0
2025-10-09,129.73572663806536,130.8587232410274,128.2580987377885,128.6619873046875,554200.0
2025-10-10,128.98704858156654,130.04108184834632,127.95270619480443,128.97718811035156,426000.0
2025-10-13,129.0363213593292,130.37603789072034,128.21869880410003,128.27780151367188,311400.0
2025-10-14,128.10047791511465,129.10526906801942,127.11539267573563,127.86406707763672,337400.0
2025-10-15,127.86406447402499,128.44526114593418,125.95299674355027,126.18942260742188,438300.0
2025-10-16,126.5243419047704,127.56852978216413,125.94313774513942,127.23360443115234,352700.0
2025-10-17,127.23361106421747,128.15959357922404,126.92823704995098,127.41091918945312,339700.0
2025-10-20,127.67688307805489,128.1497197271898,126.11060134384137,128.06106567382812,240500.0
2025-10-21,128.66197064438,129.80467301345007,127.19418837559832,128.62257385253906,311600.0
2025-10-22,128.70137488096933,130.13960588126338,128.04136960320932,128.12017822265625,357500.0
2025-10-23,128.27838836608,130.0482160538345,128.19928781482736,129.29678344726562,378600.0
2025-10-24,129.27699821696652,129.41542040316887,127.09188897025071,127.42807006835938,489300.0
2025-10-27,127.68513804202082,128.43657062662018,127.00290900843953,127.32919311523438,521700.0
2025-10-28,127.29953156353623,127.65547648827675,126.03395296154486,126.6568603515625,413500.0
2025-10-29,125.84608767724626,126.06361040803851,122.02957306455488,122.9095458984375,651100.0
2025-10-30,122.6425973459498,124.10591981246533,121.65386309537952,122.95899200439453,702600.0
2025-10-31,113.99117408852003,116.76951495369767,102.06704129042897,114.70306396484375,2758200.0
2025-11-03,114.78215353846566,114.78215353846566,107.07003104374891,111.84561920166016,1661000.0
2025-11-04,113.07164922422088,114.69317278774453,111.26226373964292,112.8936767578125,1029100.0
2025-11-05,113.04198468525121,114.73271928879292,111.49955417930168,114.26801300048828,896900.0
2025-11-06,113.72420198995826,115.64234871180304,112.517952627641,114.84147644042969,880300.0
2025-11-07,114.92057976181373,115.60280123250854,113.39792818360942,114.91069030761719,697200.0
2025-11-10,114.68328006091402,115.45449154553131,112.71570107535919,115.06888580322266,514000.0
2025-11-11,115.64235215314066,118.16362740289492,115.64235215314066,116.93759155273438,484800.0
2025-11-12,117.0067994446968,118.32181771681981,116.58165098825971,116.8288345336914,547500.0
2025-11-13,116.96726664292429,120.50692958090833,116.96726664292429,118.84585571289062,679400.0
2025-11-14,118.42069332802943,119.33033453666947,117.05624283023447,117.27376556396484,521200.0
2025-11-17,117.1551218108406,118.14385608312521,116.24548809076526,117.99554443359375,820200.0
2025-11-18,118.31193671929118,118.75686408712447,116.72995598156568,117.96587371826172,817400.0
2025-11-19,118.16362983624596,118.16362983624596,116.38390520642318,116.67063903808594,598900.0
2025-11-20,116.67063483535937,118.26249749040201,116.04773500908134,117.24410247802734,507400.0
2025-11-21,116.79916971414367,120.86286792776397,116.79916971414367,120.1509780883789,509100.0
2025-11-24,119.48852930748254,121.02107037008182,119.08315219875638,120.10154724121094,740000.0
2025-11-25,121.0309595133857,122.68214385066395,121.0309595133857,122.04935455322266,543600.0
2025-11-26,121.63407548431789,123.11717675407199,121.63407548431789,122.41517639160156,538000.0
2025-11-28,122.23721179455744,124.65961521692697,122.23721179455744,123.34459686279297,315700.0
2025-12-01,123.47312464549341,123.55222519221778,121.64396787729149,121.89115142822266,536800.0
2025-12-02,122.37563109798752,122.46462110038372,119.4390968008952,120.2300796508789,325400.0
2025-12-03,120.08176988930819,122.86011822072538,120.04222715811682,120.68489837646484,543100.0
2025-12-04,120.82332005860296,122.6821452414219,120.55636513524256,120.64534759521484,708000.0
2025-12-05,120.61568357957054,122.11856379579517,119.26112254625717,120.53659057617188,537000.0
2025-12-08,119.55773823925648,120.72444490270962,117.95599365521366,118.71731567382812,496600.0
2025-12-09,118.25260671307173,118.49979025868578,114.06037589162156,114.41632080078125,640300.0
2025-12-10,114.86124902547321,116.47289058274676,113.83296456280685,115.84998321533203,734700.0
2025-12-11,116.6310870053096,117.33308739219939,115.84010415999195,116.68052673339844,389700.0
2025-12-12,117.18477675810965,120.26963024864754,116.32458281214376,120.10154724121094,656400.0
2025-12-15,120.11143594513233,121.08039125301917,119.12270172858626,120.95185852050781,588600.0
2025-12-16,121.2880193092629,122.45472593627359,118.17350515259987,121.44622039794922,644800.0
2025-12-17,120.73433285185864,123.19627887906455,118.72720364799784,122.2372055053711,567300.0
2025-12-18,122.2767604710972,122.72169540087228,120.65523693661119,121.23859405517578,457100.0
2025-12-19,121.95047437935206,122.92932668285609,119.89391294648267,120.02244567871094,1300400.0
2025-12-22,120.02244905131522,122.30642273678362,119.70605439556444,121.35723876953125,527800.0
2025-12-23,121.48577799610219,121.64397155088497,119.95323691666961,120.81343841552734,311700.0
2025-12-24,121.1495961120519,121.78238537460243,120.38827412360435,121.36711883544922,198000.0
2025-12-26,120.99141254975284,122.08890816765887,120.34873378036154,121.86149597167969,306000.0
2025-12-29,121.90103810595791,122.90954365167185,120.9419647432383,121.82193756103516,400200.0
2025-12-30,121.41656795360201,122.89966931682952,121.04084411378047,121.35723876953125,289800.0
2025-12-31,120.15097596397585,121.94058998507745,119.98289296138277,120.58602142333984,314300.0
2026-01-02,120.36849451795845,121.61430167163682,119.41931062963688,121.15948486328125,295100.0
2026-01-05,120.3882753233874,123.17650539661395,120.3882753233874,121.61430358886719,435700.0
2026-01-06,120.84309994356978,121.4659997987374,118.75687009500949,119.20179748535156,777200.0
2026-01-07,119.31055741898699,120.57613602320409,116.28503309681528,119.0831527709961,478500.0
2026-01-08,118.56900865138992,121.98014631699301,118.17351344536358,121.06062316894531,330000.0
2026-01-09,120.70467850674399,123.5621198728979,120.09166055886544,122.4547348022461,429100.0
2026-01-12,122.60303947816963,123.88839694168902,121.59453392415777,123.72030639648438,477300.0
2026-01-13,123.64121411549613,124.02681984811237,121.15948917361368,122.10867309570312,351900.0
2026-01-14,122.71180688445504,125.72744932780128,122.71180688445504,125.42093658447266,611700.0
2026-01-15,125.70766789113175,125.78676843900955,123.11718152395939,123.7005386352539,381000.0
2026-01-16,122.60304567683241,123.78952374665012,121.85160554277793,123.30504608154297,363400.0
2026-01-20,123.49290649216461,124.1158063396922,122.0493554255934,122.4250717163086,275100.0
2026-01-21,122.90954323158518,124.2047901340779,122.50416614126715,123.6016616821289,421000.0
2026-01-22,123.64121667891544,124.98589581561515,122.66236437418617,123.0677490234375,369700.0
2026-01-23,122.93921055756546,124.85735737798285,122.4745118058816,124.58051300048828,429500.0
2026-01-26,124.99577817123766,125.55935637440064,123.69064930373163,124.92656707763672,315400.0
2026-01-27,123.54233481410213,124.87713201390274,122.77112334791536,123.33470153808594,303100.0
2026-01-28,122.80079414026893,123.66099567657822,121.86149959484645,122.30642700195312,347800.0
2026-01-29,122.88978028418853,123.86862507511535,121.20892754069328,122.4547348022461,386000.0
2026-01-30,121.52533188143772,123.60167232496788,121.27814831569736,123.54234313964844,512700.0
2026-02-02,122.80078342815366,124.49152553193812,122.80078342815366,123.42369079589844,489100.0
2026-02-03,122.51406220907022,126.48877049938638,122.29653947125486,123.22594451904297,658700.0
2026-02-04,124.77433039015442,129.44927260782487,123.77184577350829,128.26812744140625,589400.0
2026-02-05,126.71975064755804,128.1192596554473,121.05225107397254,123.05722045898438,2144200.0
2026-02-06,126.58078326238557,134.97782150042084,126.58078326238557,133.31031799316406,1045700.0
2026-02-09,132.5857587104382,138.531180271334,132.2582131007177,137.43936157226562,1043400.0
2026-02-10,136.78427392403074,139.88104683101494,136.78427392403074,139.126708984375,622100.0
2026-02-11,137.99519392074043,139.50388475135443,137.56840169460276,138.9678955078125,584300.0
2026-02-12,139.11678651599092,140.94308767923593,138.3525134196047,139.46417236328125,572700.0
2026-02-13,139.46418324151318,141.8661694437224,139.3649366253535,141.51878356933594,471900.0
2026-02-17,138.2234773285034,142.55102629654255,138.2234773285034,140.59568786621094,614700.0
2026-02-18,140.41703714664675,142.04482998774162,139.791721402891,140.66517639160156,582000.0
2026-02-19,140.5956812663536,142.25326464590432,139.98030082414553,142.09445190429688,525500.0
2026-02-20,142.0547550361601,144.0597244456509,140.94309602664507,143.97039794921875,664500.0
2026-02-23,142.42200863639354,145.15154037209857,142.06468751245615,144.63540649414062,513500.0
2026-02-24,144.98279666295065,145.8165408414096,142.77931908758302,143.06715393066406,429800.0
2026-02-25,141.35004724560304,142.59074350649368,139.38477346379526,141.61802673339844,348900.0
2026-02-26,142.45176871915783,142.84878541602816,139.95052112226952,140.73463439941406,331300.0
2026-02-27,140.47658357934912,142.9381205686862,139.9505296087492,142.64036560058594,344600.0
2026-03-02,141.93563886113196,142.2830398395081,140.56590547180699,141.60809326171875,335000.0
2026-03-03,139.5931967078321,140.26814325067423,135.90088396317486,138.71974182128906,347300.0
2026-03-04,138.302888395737,138.47162126788456,134.9976717766612,136.02000427246094,389000.0
2026-03-05,134.9877396254558,135.32520533966746,133.40957777498073,133.72718811035156,452300.0
2026-03-06,133.0026313554941,133.0026313554941,130.02496050425168,131.096923828125,398500.0
2026-03-09,129.99519404049997,132.98278521657096,126.5807954705799,132.75450134277344,545700.0
2026-03-10,132.3574660154593,133.1316591702968,130.42196798314936,131.14654541015625,503100.0
2026-03-11,130.8190202738326,132.28800044532838,129.0721101988683,131.03738403320312,563800.0
2026-03-12,130.29295237048808,131.8016279987067,127.68252279954663,127.90088653564453,620600.0
2026-03-13,129.18127925269795,129.18127925269795,126.10436183607526,127.69244384765625,660600.0
2026-03-16,128.5162697582332,130.43191254892886,125.06217580985977,128.0894775390625,370700.0
2026-03-17,129.00262050471235,130.04480827067758,127.2855013216824,128.53611755371094,276700.0
2026-03-18,123.45423058912087,125.63786042046195,120.51626292882625,123.29542541503906,910500.0
2026-03-19,122.0944332187195,123.8909588849741,120.54603921873606,123.04728698730469,518500.0
2026-03-20,123.33512999241371,123.33512999241371,119.41452545613383,120.15894317626953,1481500.0
2026-03-23,122.5907105268858,125.39964092902298,122.07457667427936,123.21601867675781,455200.0
2026-03-24,122.24332284607306,124.28798782763778,121.95548040949986,123.2259521484375,405000.0
2026-03-25,124.50634549167631,125.62793211237509,122.78921864642815,124.88351440429688,337200.0
2026-03-26,124.28798636131239,126.3922023143744,123.19617519683187,123.76193237304688,442100.0
2026-03-27,123.01751427118627,123.28550132328671,120.85373975633635,121.08202362060547,381400.0
2026-03-30,121.64777727824665,123.01751071469691,120.19864504103799,122.44182586669922,562000.0
2026-03-31,123.46415851677581,126.01502957768723,122.67010992701152,125.08202362060547,557800.0
2026-04-01,126.39219982096562,127.68252689973865,125.38972274230011,125.80659484863281,380200.0
2026-04-02,124.2085781211438,126.14406117582702,123.32520302720033,125.07210540771484,297500.0
2026-04-06,123.66266876079281,125.25076596450165,123.66266876079281,125.07210540771484,461100.0
2026-04-07,124.38723692091199,126.22346576757812,123.8711106378232,124.67507934570312,376900.0
2026-04-08,130.4021481364575,131.68254004802253,127.19617800807119,131.03738403320312,645200.0
2026-04-09,130.24332882387228,131.45424955756675,126.39220287440348,130.42198181152344,424100.0
2026-04-10,131.2656579543429,131.71230555728022,129.87608426848973,130.521240234375,407400.0
2026-04-13,129.82646170678544,131.43439923843442,126.63042687940094,131.126708984375,396300.0
2026-04-14,130.2532453341348,131.73216065356567,129.99518597737963,130.03488159179688,315500.0
2026-04-15,129.83638260646234,130.05474636457114,127.64284005257605,128.6850128173828,407100.0
2026-04-16,125.95547520842267,129.35994576168224,125.95547520842267,127.33512115478516,393800.0
2026-04-17,128.6849981610624,131.31528307681364,128.6849981610624,129.65771484375,401100.0
2026-04-20,129.59817078840075,131.00759986778516,128.69494031122633,129.945556640625,403600.0
2026-04-21,129.72718762909471,131.2656538985368,125.74703979492188,125.74703979492188,310200.0
2026-04-22,126.33265459801167,126.33265459801167,122.04480863207884,123.62297821044922,458900.0
2026-04-23,124.44679072012924,126.49146323670142,123.51379231359721,124.01007080078125,440800.0
2026-04-24,123.48401687155638,123.48401687155638,121.65770810014067,123.1564712524414,440900.0
2026-04-27,123.11676900112164,125.29047121573323,122.62049050993973,123.8016357421875,359700.0
2026-04-28,125.18128618602746,125.70734016180099,122.79914797388655,124.8338851928711,354300.0
2026-04-29,124.20857785922294,124.96292327213307,121.87607050853111,121.9852523803711,448400.0
2026-04-30,122.51130595027864,125.14158341040145,120.97283963229869,122.75944519042969,764800.0
2026-05-01,126.26316859263083,127.5237125861033,117.0224658192811,118.13412475585938,989400.0
2026-05-04,117.79666211505766,120.84381172589876,116.58574139374336,119.7023696899414,739600.0
2026-05-05,120.00014032911528,122.78922301811379,119.92073395333378,121.1217269897461,628600.0
2026-05-06,122.74597925597982,125.94466800462597,121.24129756714204,122.19791412353516,917000.0
2026-05-07,122.5068295340525,126.02439054042098,122.13813047351475,124.66918182373047,749700.0
2026-05-08,124.78875603965518,125.4165335007669,119.9658058031768,120.56369018554688,794900.0
2026-05-11,120.79288554794945,120.79288554794945,119.0191585502766,119.53732299804688,706100.0
2026-05-12,120.02559365453983,120.43415267647454,116.72725880994862,117.6340560913086,696600.0
2026-05-13,117.58423293808002,118.33159035082205,116.01976505817387,117.46465301513672,679500.0
2026-05-14,118.31166263789773,119.73662439056804,116.62761485678391,117.57426452636719,531000.0
2026-05-15,117.49455009110837,117.5045093824967,114.06666843041747,114.26596069335938,447000.0
2026-05-18,115.19268785792543,116.90662874327987,114.76420263658683,115.40194702148438,433100.0
2026-05-19,115.48166685737739,115.63113986049136,112.05378509001822,113.20970153808594,575800.0
2026-05-20,113.66807993613209,115.04321484042606,111.15696237122292,114.85388946533203,562600.0
2026-05-21,116.08951407739181,116.08951407739181,112.37265332877841,115.1030044555664,345600.0
2026-05-22,115.39198749681162,116.38846404651633,114.30582410432685,115.82047271728516,405800.0
2026-05-26,115.79056648170686,116.55785764558959,114.96349676302546,115.96993255615234,344500.0
2026-05-27,116.52796630163347,117.69384200162881,114.32575411191587,114.89374542236328,464000.0
2026-05-28,114.40547144179769,115.93007936247552,112.95061657623215,115.58131408691406,510100.0
2026-05-29,114.65458561775299,116.84683851674723,113.34920381323532,115.44180297851562,559600.0
2026-06-01,114.28589767180515,114.72434218302038,111.63526640610465,111.9840316772461,706800.0
2026-06-02,111.5555436879482,112.65167394505289,110.84804626905223,111.78473663330078,452400.0
2026-06-03,111.29646253608045,113.61824699938008,111.29646253608045,112.13349914550781,372600.0
2026-06-04,114.54497230632394,115.35212345281656,111.14699134502068,112.15343475341797,337600.0
2026-06-05,112.69152600064275,114.18624078068318,111.58544405772433,112.96057891845703,466300.0
2026-06-08,111.86445781905672,112.24311616501637,110.55906839000053,111.54558563232422,422200.0
2026-06-09,112.88085932662787,115.74074968498803,112.27300803930216,115.49163055419922,444400.0
2026-06-10,115.74074928767203,116.13934141606836,112.97054577921195,114.26596069335938,496800.0
2026-06-11,114.70441351982215,116.59772043978674,113.85740999319688,116.16923522949219,395200.0
2026-06-12,117.48458764205596,118.05257897569324,115.96993901734801,117.30522155761719,342600.0
2026-06-15,118.28175862932584,120.31457162088154,117.14577601676713,117.66394805908203,576100.0
2026-06-16,118.08246565966249,120.62348378448296,113.36912845320511,120.22489166259766,474700.0
2026-06-17,121.19147655168894,121.918900150595,119.03908362900873,119.56721496582031,680500.0
2026-06-18,120.03556323646836,122.1182031608104,118.69032142639777,119.89605712890625,750600.0
2026-06-22,119.13873446752551,120.58363003359555,118.46113010611298,119.57718658447266,468400.0
2026-06-23,119.93591657137902,122.14809569936509,118.6604278207416,120.1850357055664,514100.0
2026-06-24,121.55021059109053,124.60939323702425,121.34094382937874,123.84210205078125,404900.0
2026-06-25,125.28699706013307,127.68850153642342,124.45991971828299,125.98452758789062,363500.0
2026-06-26,125.49625757990486,126.67210019838983,124.3204149614199,125.53611755371094,727400.0
2026-06-29,125.16742108368359,125.60587320209562,123.48337326752176,124.84854888916016,446600.0
2026-06-30,124.16097333332938,125.86494727656601,123.5033027809896,124.75885772705078,329300.0
2026-07-01,124.67914609082169,126.39307933521575,123.66273577346423,124.80868530273438,405600.0
2026-07-02,125.82508774888942,127.77818082996899,124.96812492977865,126.5325927734375,468400.0
2026-07-06,125.98452783897301,126.6023460237271,123.74245564919634,125.56600952148438,431400.0
2026-07-07,126.18381913439254,128.26645901687073,125.71548155556971,127.2400894165039,392700.0
2026-07-08,126.00445175211411,126.26353777363065,122.60647080352626,123.77234649658203,537700.0
2026-07-09,124.02146439127118,125.03787467960888,123.34386006655016,124.0114974975586,302100.0
2026-07-10,124.55956853594634,126.53259544666133,123.93179104742975,125.08769989013672,385200.0
2026-07-13,125.64571994715708,126.72191640641843,123.96167980892794,124.449951171875,391600.0
2026-07-14,127.96751666781715,128.95403392567474,127.5091383673285,127.82801055908203,739900.0
2026-07-15,129.25298235497795,130.3092450844948,127.99741214779503,128.65509033203125,466800.0
2026-07-16,129.56187796196684,134.6040465870392,129.56187796196684,134.27520751953125,579300.0
2026-07-17,135.351401437915,136.16850424088722,130.24944675099272,132.1427459716797,530800.0
2026-07-20,131.9135687694055,131.9135687694055,129.2928306127641,129.4522705078125,422900.0
2026-07-23,128.39600579528673,129.36258923692642,127.71839385448645,128.54547119140625,382800.0
2026-07-24,129.13338680160044,132.26232242316664,129.13338680160044,131.8936309814453,335900.0
2026-07-27,132.72071171310446,133.60757521827134,132.19258036761323,132.9000701904297,411200.0
2026-07-28,134.9030016293852,137.54365843276426,134.3549364800917,137.32443237304688,593100.0
2026-07-29,135.52081464440568,136.11870667337666,134.0759266469227,135.75,580000.0
2026-07-30,136.39999389648438,136.39999389648438,133.11000061035156,133.8699951171875,627000.0
2026-08-03,137.22999572753906,138.4600067138672,134.52999877929688,136.77000427246094,642500.0
2026-08-04,137.8699951171875,137.8699951171875,135.33999633789062,136.17999267578125,511900.0
2026-08-05,136.8699951171875,136.8800048828125,134.8699951171875,136.75,454800.0
2026-08-06,138.6199951171875,138.69000244140625,134.6699981689453,135.77999877929688,545000.0
2026-08-07,135.05999755859375,137.67999267578125,134.7100067138672,135.4199981689453,686300.0
2026-08-10,134.38999938964844,134.52000427246094,132.92999267578125,133.67999267578125,446700.0
2026-08-11,132.8000030517578,135.0500030517578,132.8000030517578,134.75,343700.0
2026-08-12,133.50999450683594,134.47000122070312,132.27000427246094,133.14999389648438,315100.0
2026-08-13,134.44000244140625,133.7050018310547,132.08999633789062,132.57000732421875,385406.0
