Date,Open,High,Low,Close,Volume
2023-09-25,117.34077068831786,119.39921139699219,116.84059192021189,119.3126449584961,258800.0
2023-09-26,118.82207240268929,119.4857777443957,118.53351028701881,118.889404296875,547000.0
2023-09-27,119.31264031088143,119.70701074637915,118.18723262251139,118.81245422363281,362400.0
2023-09-28,119.13950746199725,120.85166777851079,118.56237584297187,120.68814849853516,219300.0
2023-09-29,121.66925605429941,121.99630191131372,120.03404878510511,120.27452087402344,330900.0
2023-10-02,119.78395548707734,120.69775382607703,119.26453489555266,120.28414154052734,244100.0
2023-10-03,119.29339878482428,120.53423572898005,117.82171067436374,118.1872329711914,236300.0
2023-10-04,118.84133024310002,119.90902709333459,117.6678250679862,119.49541473388672,208200.0
2023-10-05,119.23571001987368,120.16874313640238,118.11992305954354,119.0337142944336,466700.0
2023-10-06,118.8990326896935,121.86165089685026,118.6874160550928,121.59232330322266,491700.0
2023-10-09,121.02480176411956,122.3714470315645,120.89975891033677,122.10211944580078,275700.0
2023-10-10,122.39069575140489,123.70848569285894,121.68852122697024,121.71737670898438,322000.0
2023-10-11,122.66962432861328,122.83314359247812,121.82316519334888,122.66962432861328,212900.0
2023-10-12,122.37143953710256,122.54457973715071,120.29375713652479,120.6400375366211,189300.0
2023-10-13,121.19794575056598,121.84240925638196,120.62081414328858,121.1690902709961,324900.0
2023-10-16,122.50611121132462,122.57344310797819,121.36146162958764,121.8808822631836,275200.0
2023-10-17,121.20757421791582,123.44876888768273,121.20757421791582,122.62155151367188,314400.0
2023-10-18,122.03478544306672,122.80429176930639,121.46726746403726,121.94821166992188,287300.0
2023-10-19,121.2748918959895,122.61191619220571,120.61118654800225,120.938232421875,443900.0
2023-10-20,121.13060925368268,121.65965082113568,117.28305556639171,117.56200408935547,446500.0
2023-10-23,117.08107007558768,118.46619187200963,116.59050488291709,116.86945343017578,379000.0
2023-10-24,117.47542865086069,119.05292505320921,117.08105821958665,118.63931274414062,312100.0
2023-10-25,118.15677276144453,119.4596516517281,117.63561973271062,118.09886932373047,431300.0
2023-10-26,117.02760662773419,121.01345262337937,117.02760662773419,119.12186431884766,576000.0
2023-10-27,119.16046741363326,119.51754841038496,116.1590166748117,116.94074249267578,364000.0
2023-10-30,117.66457911449282,118.05061923829989,116.63192601709312,117.90585327148438,283100.0
2023-10-31,118.23398596724621,118.60072002279092,117.57771998783277,118.00235748291016,422900.0
2023-11-01,117.847941489138,119.12186865336518,117.36539320930797,118.63932037353516,360500.0
2023-11-02,119.40174500651636,119.9518497393298,118.68757562918539,119.26663208007812,384300.0
2023-11-03,120.08696643881918,121.57321603943892,120.08696643881918,120.974853515625,278000.0
2023-11-06,120.89763669523624,121.3415875698335,120.39578974927271,120.8204345703125,173500.0
2023-11-07,120.27034577683186,120.62742682079855,119.83604787151418,120.20278930664062,205000.0
2023-11-08,120.52127066544553,121.10998022889208,120.06768141116183,120.75289916992188,175800.0
2023-11-09,121.30299122840282,121.30299122840282,119.73953212154,120.0483627319336,118600.0
2023-11-10,119.90358602094061,121.39948852773999,119.56580372159614,121.3319320678711,195600.0
2023-11-13,121.01346298027089,121.10032550372696,120.02906768075303,120.18347930908203,183100.0
2023-11-14,121.55391115797988,123.39724915782807,120.936249936579,123.3875961303711,267400.0
2023-11-15,123.35865603473404,124.30445401086837,122.90505942184835,123.25249481201172,388600.0
2023-11-16,123.19458405532637,124.13072158442283,122.41285079230998,123.09807586669922,217000.0
2023-11-17,124.07281379686883,124.57466814111162,123.15597499237893,123.46480560302734,162700.0
2023-11-20,123.00155090272261,123.1945746283093,122.01715567308845,122.87609100341797,213900.0
2023-11-21,123.0112053695368,123.82189030028484,122.76027820488832,123.44550323486328,160600.0
2023-11-22,123.96666739657351,124.69048991705901,122.91471553442426,124.08248901367188,174800.0
2023-11-24,124.46850623760841,124.46850623760841,123.6288769312162,124.04386138916016,65900.0
2023-11-27,123.3586396115106,123.82188919108859,122.42249478837549,122.5672607421875,367500.0
2023-11-28,122.56726798434931,122.5769210120011,121.1099700592446,121.22578430175781,218000.0
2023-11-29,121.25474400150301,121.98821952615201,120.55987322689904,120.99417114257812,331800.0
2023-11-30,121.07136390507863,122.69272646591232,120.45370267838986,122.46110534667969,301000.0
2023-12-01,122.00752090603291,124.05352116174625,122.00752090603291,123.62889099121094,218300.0
2023-12-04,123.00156109551249,124.38165691773952,122.46110934528859,123.93770599365234,192000.0
2023-12-05,123.77363433441964,124.1982791787773,121.48635282699652,121.59251403808594,178000.0
2023-12-06,121.9785653558879,122.85680684420771,121.48636400130093,121.95926666259766,179500.0
2023-12-07,121.83379146528237,122.6734281493362,121.59251731777178,122.07506561279297,254000.0
2023-12-08,121.94959920990867,123.04980867489485,121.2354298329936,122.87609100341797,265800.0
2023-12-11,122.81819302140134,123.22353181848027,121.93029857047753,123.11737060546875,338000.0
2023-12-12,123.19457459310557,123.6288724532248,122.2584297728089,123.03050994873047,210300.0
2023-12-13,122.74098611390058,124.48781597010334,122.74098611390058,124.10176849365234,425000.0
2023-12-14,124.57466295525923,125.47219566747552,122.45144615272285,122.95330047607422,412900.0
2023-12-15,122.72168474321455,124.09212012074336,121.57321745592215,121.58287048339844,713000.0
2023-12-18,122.28738762368339,122.76993591705903,121.48635568953519,122.61552429199219,240500.0
2023-12-19,123.25248124676398,123.65782739941075,121.63111872548421,121.82414245605469,659100.0
2023-12-20,121.62146243272905,122.50935684330899,121.08101072784736,121.18717193603516,346400.0
2023-12-21,121.83378081634912,121.83378081634912,120.49229726249135,121.51530456542969,421900.0
2023-12-22,121.98820682835046,122.60586803857178,121.71798096926643,121.86273956298828,312200.0
2023-12-26,121.7372726533808,122.44179634238442,121.20646662994645,121.43809509277344,274700.0
2023-12-27,121.71798784257851,122.05577018550782,120.6660287024811,120.90730285644531,283100.0
2023-12-28,120.61777069727657,121.40914957794178,120.05801292816882,120.83008575439453,343600.0
2023-12-29,120.820430362007,120.98449499602071,119.24731839145845,119.30522918701172,313500.0
2024-01-02,118.33048400507984,119.76847574725994,118.02165341555587,118.59105682373047,313100.0
2024-01-03,120.78182007354174,122.81817413640482,118.8516272073664,120.98448944091797,531700.0
2024-01-04,120.8107843913824,121.5249537647008,119.79743008568695,119.88429260253906,353300.0
2024-01-05,119.45965144487354,120.02906224611816,118.69722427618132,119.864990234375,423000.0
2024-01-08,119.73953213187556,120.79149123065565,118.09887089459961,120.00975799560547,352400.0
2024-01-09,119.39208886536294,120.28962891792202,118.67791950665958,120.27997589111328,250300.0
2024-01-10,120.11591087750575,121.04240264450908,119.89394280330917,120.8204345703125,279600.0
2024-01-11,121.0038017297732,122.53830905966294,120.57916425839741,122.412841796875,323100.0
2024-01-12,123.4261986038641,123.50340809589281,121.52495720049569,122.01715850830078,231700.0
2024-01-16,121.48634817990717,122.39354127156845,121.12926717726768,122.3838882446289,257500.0
2024-01-17,121.54425926799404,122.82783205612957,121.4960014962835,122.26808166503906,336900.0
2024-01-18,122.876100447986,125.47220532952528,121.90135080738276,124.63257598876953,444200.0
2024-01-19,125.18269780321808,126.871617006182,124.05352171988879,126.23464965820312,418000.0
2024-01-22,126.33112146870488,127.20936278677414,126.00299220465814,126.61100769042969,266200.0
2024-01-23,127.19971649715869,127.24797426544636,125.78102352148032,127.22866821289062,217800.0
2024-01-24,127.50853481683981,127.67259944176305,125.98368069989095,126.2153091430664,294400.0
2024-01-25,127.4216965566274,127.75948624024079,125.82929313663216,126.6689224243164,332300.0
2024-01-26,127.08391202345744,127.96215345548178,126.81368615609692,127.10321807861328,219900.0
2024-01-29,126.47589747660612,127.96213958599905,125.93544580046323,127.6340103149414,187800.0
2024-01-30,127.42168790985616,128.44468782915573,127.0356552058123,127.6340103149414,228400.0
2024-01-31,128.14711126677335,128.53435928082044,125.03952535355248,125.73655700683594,537500.0
2024-02-01,126.29805931683907,126.92731704694036,125.47517018793579,126.33677673339844,298800.0
2024-02-02,125.81399083086278,126.54006414764015,124.58450254495992,125.94952392578125,344800.0
2024-02-05,125.01049634153883,127.25647596394337,123.96494875503913,126.48199462890625,319500.0
2024-02-06,126.31740568420186,127.20805395014796,125.17505729048875,126.9466781616211,369700.0
2024-02-07,127.21774119888832,128.19551470320488,125.24281332521821,127.59529876708984,393000.0
2024-02-08,127.4404150760117,130.5383255987766,127.34359937104924,127.90509796142578,620700.0
2024-02-09,127.89540969408253,134.7689104528772,127.31454506556426,134.52688598632812,650900.0
2024-02-12,134.72051017566284,135.98871608812559,133.12313974347538,133.21995544433594,491300.0
2024-02-13,132.32930021222504,132.9488822581375,130.67384635486445,131.59353637695312,275900.0
2024-02-14,131.91303358615116,133.07476305152232,130.85781026804267,132.79400634765625,335000.0
2024-02-15,132.7939558437664,133.41353776272464,130.2769107607478,130.73190307617188,471400.0
2024-02-16,131.05139603090558,133.5974980024858,130.7319219804335,133.1134490966797,453900.0
2024-02-20,132.76492924425213,135.66922259050702,132.580988302136,135.23358154296875,373000.0
2024-02-21,134.6430432067918,135.6401827546635,134.5559179504535,135.53369140625,276300.0
2024-02-22,135.9887045298492,137.87649236016304,135.60147130332354,136.95680236816406,295700.0
2024-02-23,137.44085155268917,137.51830115254398,136.11456223867728,136.85031127929688,190300.0
2024-02-26,136.98584148427423,137.5279738997732,136.3081759649005,137.39244079589844,199200.0
2024-02-27,137.39245476737844,137.64415490816972,135.34009190799827,135.8338165283203,244600.0
2024-02-28,135.194869665944,136.7341565973834,134.88508601058652,135.93063354492188,189600.0
2024-02-29,136.1436245676808,137.11172255417472,135.36914322408506,135.9790496826172,250600.0
2024-03-01,135.41752898322991,136.298486780481,135.10773058753682,135.81443786621094,151400.0
2024-03-04,136.20167928350625,137.58605202090553,136.07582184483363,137.43116760253906,260300.0
2024-03-05,137.73128791076408,138.64130227082694,137.21819722213309,137.9733123779297,190200.0
2024-03-06,138.37018945312875,139.05754528147227,137.93454846682545,138.5057373046875,184000.0
2024-03-07,139.89016108176327,140.50974321124528,139.25121285610905,140.03536987304688,250100.0
2024-03-08,140.09344450787563,140.44196032011527,138.40894895338388,138.52511596679688,185200.0
2024-03-11,138.23470289544156,138.80589192553307,137.4505459017938,138.18630981445312,226700.0
2024-03-12,138.2444094688461,138.29281732748876,136.9665129063017,137.86685180664062,242200.0
2024-03-13,138.43798895737592,138.43798895737592,136.4340193693208,136.6566925048828,336800.0
2024-03-14,136.8503260525416,137.10202620024066,135.88222810784958,136.4340362548828,235200.0
2024-03-15,135.57240492142637,137.86680667638342,135.28198740864667,136.5017852783203,599500.0
2024-03-18,136.43402821831805,136.79223448171572,134.49783244298447,134.8173065185547,299700.0
2024-03-19,134.4494497592499,135.84351318877248,134.4494497592499,135.05934143066406,253000.0
2024-03-20,135.1754889932736,135.6014543524043,134.7011157938783,135.504638671875,220000.0
2024-03-21,135.83380611845956,137.08266060945118,134.85603261400937,136.6373291015625,255800.0
2024-03-22,137.4795668432542,137.90553224987627,136.5502012033519,137.07296752929688,276000.0
2024-03-25,136.69538490177803,139.45446910654107,136.66634315410667,138.3992462158203,316300.0
2024-03-26,138.2734460223838,139.70622699782123,138.07013893254282,138.6316375732422,314200.0
2024-03-27,139.08660656444317,140.5193871456138,139.08660656444317,140.04502868652344,218200.0
2024-03-28,140.19997576704347,140.71306658499674,139.0672879758584,139.2996368408203,247800.0
2024-04-01,139.2028031090346,139.2028031090346,137.5860812427115,137.7506561279297,204400.0
2024-04-02,137.3149905478121,137.3149905478121,135.91125167032422,136.1436004638672,202600.0
2024-04-03,136.18232831953642,136.6857433581489,135.40784705367142,136.38563537597656,258700.0
2024-04-04,137.30529382424774,138.19594190486524,136.47272924010556,137.22784423828125,403600.0
2024-04-05,136.8696707293308,138.20563563898364,136.45338099681578,137.20849609375,288300.0
2024-04-08,137.15044783550806,137.83780394499973,135.91128352352635,136.02745056152344,312500.0
2024-04-09,135.9403078901939,136.59862215595857,134.91412646050384,135.8338165283203,242600.0
2024-04-10,134.5462205437176,135.74666706614912,134.0331299203233,134.95281982421875,200700.0
2024-04-11,134.8173099688125,135.57242515875745,134.03315302325444,134.69146728515625,265300.0
2024-04-12,133.76208470665995,134.51719988484666,131.62259662579817,132.82302856445312,299200.0
2024-04-15,134.18806141184052,135.34977603182242,133.43294617025217,133.7911376953125,319600.0
2024-04-16,133.39420463004214,134.94316719612974,132.97792961895718,134.16868591308594,281700.0
2024-04-17,134.44942351929788,135.03027332023512,133.93633288107014,133.98472595214844,565400.0
2024-04-18,133.9750418295626,134.99154738199303,133.8104669910927,134.6720733642578,246600.0
2024-04-19,134.62369389699214,135.4562586960129,134.34295200090463,134.89476013183594,276600.0
2024-04-22,135.09808150736472,136.64702947458002,134.80764914726078,135.84352111816406,298800.0
2024-04-23,135.31104215956182,136.65669759538656,135.06901769432713,135.6789093017578,417200.0
2024-04-24,135.88281662716403,136.80520507967753,135.5818281146395,135.94107055664062,559200.0
2024-04-25,135.77602463073538,137.14505135391553,134.882763065245,136.10614013671875,694400.0
2024-04-26,137.87323164710924,144.19403432783037,137.77613189586884,139.16458129882812,489500.0
2024-04-29,140.68894676515575,143.71828418532212,140.17435067690909,142.12594604492188,676700.0
2024-04-30,141.50455876401378,141.85409715843193,139.87337465161463,140.18408203125,585100.0
2024-05-01,140.77634869572992,142.9318328954004,140.37826043918207,141.15501403808594,359600.0
2024-05-02,141.52399808255342,142.4658096637306,141.06765577763883,141.67935180664062,356500.0
2024-05-03,142.83474149980546,142.85416441513408,140.6307072933261,142.54345703125,303300.0
2024-05-06,143.46584874866832,144.74749451317692,142.88329461371845,144.70864868164062,260200.0
2024-05-07,144.00958866873592,146.00971937546657,144.00958866873592,145.368896484375,392900.0
2024-05-08,145.36889477978409,146.48546798558442,145.13586423611673,146.4077911376953,223500.0
2024-05-09,146.6116974972741,147.32047837661355,144.31057824435283,144.74749755859375,299100.0
2024-05-10,144.62127547863358,144.66982536296524,143.78626784030067,144.17465209960938,186300.0
2024-05-13,144.21348527947174,145.1358738342205,142.59201986283358,143.57266235351562,167500.0
2024-05-14,143.99014505242278,143.99984910137368,143.18426452924012,143.6017608642578,137600.0
2024-05-15,143.66006275911806,144.02900930384612,142.50464360760014,142.99981689453125,211100.0
2024-05-16,143.08718529410942,143.6017814537863,142.17450084023903,143.2522430419922,235500.0
2024-05-17,143.55324035133813,143.8639329180127,142.85416355714113,143.3784637451172,169500.0
2024-05-20,143.30077614301211,144.09695263816212,142.7667571298435,143.86392211914062,163400.0
2024-05-21,143.64062450269293,144.35910941304445,142.81532096392596,144.271728515625,280400.0
2024-05-22,143.76686506207298,144.50477295906495,143.1842960592116,144.46592712402344,283300.0
2024-05-23,144.33971700612148,144.62128264464536,143.27167875928185,143.42703247070312,171700.0
2024-05-24,144.1649355408977,144.5047699213138,143.077489228118,143.78627014160156,162300.0
2024-05-28,143.32992330845792,143.48527700970283,141.58224602315815,142.44638061523438,318400.0
2024-05-29,141.41716447863772,142.4366527072403,140.31029535438608,140.63070678710938,229700.0
2024-05-30,140.91227152936236,142.7084983843772,140.78604481723752,141.89291381835938,328100.0
2024-05-31,141.8443657942061,143.5338036875814,141.6793080690731,143.3978729248047,358900.0
2024-06-03,144.18434827896806,144.18434827896806,142.0288639073479,143.85423278808594,266200.0
2024-06-04,143.3590315880983,144.07753125118836,142.43664318212836,143.8833465576172,287900.0
2024-06-05,143.42703109057712,143.8930774050111,142.80563106621676,143.6212158203125,229200.0
2024-06-06,143.70859743356854,143.70859743356854,141.17444743738662,141.7181854248047,197600.0
2024-06-07,141.53369124615435,142.07741436636817,141.22298385440706,141.32008361816406,179100.0
2024-06-10,140.62100939036216,141.5725248682501,139.80542469502964,141.35891723632812,125800.0
2024-06-11,140.69869527654703,141.504575973223,140.15497211140303,141.27154541015625,147700.0
2024-06-12,141.9900224631697,142.05798044025738,139.88308812796836,141.59193420410156,221300.0
2024-06-13,141.6501881317032,142.27158805169188,140.805476550794,141.59193420410156,232400.0
2024-06-14,140.8734504649213,141.1550309006414,139.50442375003365,140.5433349609375,141500.0
2024-06-17,140.6598313540665,142.41722736375868,140.3685617068692,142.07740783691406,303800.0
2024-06-18,142.22303735719075,143.39787921333664,142.2133333077604,142.42694091796875,219900.0
2024-06-20,142.3977978909361,143.24250937170754,141.436563753432,141.57249450683594,199900.0
2024-06-21,141.63076047927734,142.86385622851674,141.0870374193948,142.58229064941406,444100.0
2024-06-24,142.94153910100914,143.92218146002028,142.4075200677485,142.45606994628906,182900.0
2024-06-25,142.52403514640127,142.53375401180762,140.30059282386082,140.65013122558594,194500.0
2024-06-26,140.05786957330074,140.58216981066397,138.80536550800005,139.5335693359375,192400.0
2024-06-27,139.68890380859375,139.69862267447957,138.13541124732973,139.68890380859375,377300.0
2024-06-28,139.60149156021046,140.12580647860236,136.0187272741163,136.71780395507812,435100.0
2024-07-01,137.2712545772139,137.36833951304502,134.36814387510577,134.51377868652344,306400.0
2024-07-02,134.45551784033776,136.41681715340104,133.7564411508368,136.31971740722656,259400.0
2024-07-03,136.7858055226286,137.2906828198518,136.48481699130676,137.1159210205078,143300.0
2024-07-05,136.89260200916505,137.32952129947634,135.66921021788147,136.80520629882812,207000.0
2024-07-08,137.53340696834337,138.35871046567937,137.38777214662196,137.39747619628906,249300.0
2024-07-09,136.76637614080624,137.1644644187289,135.6886339831031,135.97019958496094,238400.0
2024-07-10,136.65956823532298,137.51399869592782,136.48480644947725,137.18386840820312,142000.0
2024-07-11,137.09649774945188,139.13547429525167,136.65957843687883,137.96063232421875,244500.0
2024-07-12,139.24225471520856,141.26180800557879,139.24225471520856,140.38795471191406,263900.0
2024-07-15,140.55303808812164,141.4560185081972,138.98012261389596,139.26168823242188,319900.0
2024-07-16,139.66951340058085,141.07737130534576,139.66951340058085,140.35887145996094,178800.0
2024-07-17,140.14523913079555,141.5336886876332,140.14523913079555,140.65013122558594,242300.0
2024-07-18,140.40741934435977,142.97069643312764,140.39771529272758,142.0288848876953,434200.0
2024-07-19,142.32986505813662,142.32986505813662,140.45596094483025,141.69876098632812,251200.0
2024-07-22,141.74729152284237,143.2716569904321,141.0287918281976,142.91241455078125,235700.0
2024-07-23,143.57267190199258,144.19407195218295,141.4366101554223,141.7958526611328,234500.0
2024-07-24,141.82498394212112,142.36870709384863,139.71803450615988,139.95106506347656,250600.0
2024-07-25,139.11344762204345,140.301703406818,137.5453405527421,137.80831909179688,558100.0
2024-07-26,139.40562054037346,147.35327797180082,138.64591810105864,142.84376525878906,562800.0
2024-07-29,142.76584597383152,144.4897929937424,141.39253199421196,143.9541015625,390900.0
2024-07-30,143.5450338076538,144.05149220142636,141.62629393482098,141.9574432373047,411000.0
2024-07-31,142.68793548619507,144.97679227316166,141.62630185383244,143.1554412841797,280600.0
2024-08-01,143.0580564170797,145.64882955447564,141.64577481833908,143.2041473388672,335300.0
2024-08-02,142.7658734897668,143.17494297199187,140.00951055934578,141.89903259277344,213500.0
2024-08-05,139.69779019041522,139.69779019041522,135.85057640594786,137.01934814453125,448500.0
2024-08-06,137.65246713764915,142.28860227483594,137.43819054803106,141.15878295898438,476000.0
2024-08-07,142.21066611828329,143.42813984840885,139.73676603783363,139.86338806152344,353600.0
2024-08-08,140.70101663202263,142.356778003838,140.70101663202263,141.7723846435547,268600.0
2024-08-09,141.62628524099554,141.62628524099554,139.73676366603377,140.2042694091797,263200.0
2024-08-12,140.22374527361563,140.42827252274284,139.05497355052955,139.56143188476562,221100.0
2024-08-13,139.7757349256636,141.51916583268488,139.37641479063032,140.6133575439453,212000.0
2024-08-14,140.37961977723546,141.04191846622177,139.7562737151191,140.1555938720703,115700.0
2024-08-15,141.2269842783919,143.5060920440662,141.2269842783919,143.18467712402344,277500.0
2024-08-16,142.30806341467064,143.01906387906809,141.8210739450238,142.90219116210938,250600.0
2024-08-19,142.51262572122243,143.88592492526362,142.12302517326572,143.1457061767578,191200.0
2024-08-20,143.15544136166255,144.45083532458932,143.15544136166255,144.25604248046875,387200.0
2024-08-21,144.31447092085256,145.6780504782827,143.6229541329459,145.4442901611328,267300.0
2024-08-22,145.67803823477166,146.48642768244193,144.80144826543804,145.11312866210938,200400.0
2024-08-23,145.76571861816686,146.61307569653127,145.55144202289785,146.52542114257812,221400.0
2024-08-26,146.75915922191393,148.6973829226023,146.23321706296485,146.25270080566406,235500.0
2024-08-27,146.10660272585045,147.59678959341667,145.94102805853666,147.26564025878906,208300.0
2024-08-28,147.00262825791697,148.01557463659083,147.00262825791697,147.5967559814453,249000.0
2024-08-29,148.58048334564495,148.93111634217536,147.27535519368,148.3175048828125,187100.0
2024-08-30,148.23961278387767,149.447352191514,147.6941868777649,149.203857421875,178500.0
2024-09-03,148.15194689459446,148.41492538696468,145.83387210929124,146.13580322265625,362400.0
2024-09-04,145.7072902273948,146.97345126291708,145.7072902273948,146.80787658691406,175800.0
2024-09-05,147.14872868895006,147.81102718343183,146.04812781588345,146.798095703125,200600.0
2024-09-06,146.4669892113799,149.1356825686532,146.4669892113799,148.41494750976562,319100.0
2024-09-09,148.599998351621,149.07723859888472,147.49939721337483,147.95716857910156,241500.0
2024-09-10,147.91819898327566,148.81425795867298,147.49939511007815,147.56756591796875,158100.0
2024-09-11,146.86627610856456,146.9539455070627,144.762492917651,146.91497802734375,178000.0
2024-09-12,146.9637098345748,148.05456170073086,146.06765082141203,148.00587463378906,200400.0
2024-09-13,148.2298503491145,149.02850531459362,147.94738814710303,148.3175048828125,138600.0
2024-09-16,149.0577507849576,149.18437282019818,148.11300475699895,149.00906372070312,182900.0
2024-09-17,149.99278031830573,151.52193462791402,147.91820009450953,149.0480194091797,259900.0
2024-09-18,149.75900813476628,151.4440025327287,148.73634205746214,149.08697509765625,214200.0
2024-09-19,150.98622094035395,154.67759462046783,150.98622094035395,152.81729125976562,412400.0
2024-09-20,152.24267408275566,152.24267408275566,150.46029050724783,151.85308837890625,663300.0
2024-09-23,152.10629117339244,152.8270409482074,150.7135084054571,151.90176391601562,315800.0
2024-09-24,152.11603410552289,152.99262412844,151.96994319924016,152.55433654785156,246200.0
2024-09-25,153.2069113857245,153.76207173006424,151.81411358113382,153.0510711669922,284100.0
2024-09-26,153.83025116800434,154.92110293146314,153.59649084937433,154.25880432128906,371600.0
2024-09-27,154.5509862737545,157.34631621260434,154.14191686210978,155.72950744628906,354300.0
2024-09-30,155.14510798319304,156.24570900619995,154.7944749495995,156.02169799804688,289800.0
2024-10-01,156.3625791144633,156.3625791144633,154.91135994387946,155.8074188232422,192200.0
2024-10-02,155.70027309577677,155.94376782945204,153.84971906454047,154.61915588378906,186900.0
2024-10-03,153.8789526282023,156.2846820263738,152.564074990201,154.80422973632812,367000.0
2024-10-04,155.77818912671566,157.2683756689615,155.18406139759068,156.4015350341797,350500.0
2024-10-07,155.24251230852914,155.486007058675,153.89841653196711,154.56072998046875,223300.0
2024-10-08,154.16140851662,154.88215839036292,153.0121203289736,154.541259765625,205900.0
2024-10-09,154.22958607287964,155.8853474593437,154.00556019446944,155.54444885253906,152600.0
2024-10-10,153.93738118810276,155.2327750185027,153.93738118810276,155.07693481445312,168500.0
2024-10-11,156.75218568056042,157.70668095780067,156.17754162622376,157.3463134765625,194400.0
2024-10-14,160.6968029731812,163.394714143239,159.20661626974442,162.8395538330078,469700.0
2024-10-15,162.96617430440529,165.2452816100452,162.15776994657773,164.290771484375,397300.0
2024-10-16,164.31027038182938,164.79725992941144,161.60260968621262,161.719482421875,330000.0
2024-10-17,162.63500734074424,163.94015048027507,162.18698532860228,163.52133178710938,238200.0
2024-10-18,164.6998826021437,164.6998826021437,163.41422297183175,164.2421112060547,171500.0
2024-10-21,164.0862524476999,164.1057361900711,161.97271968352462,162.00193786621094,217900.0
2024-10-22,161.4078288401736,162.04090935440306,160.52150423085823,161.4954833984375,228500.0
2024-10-23,162.17724687078498,163.6089972685699,161.83636311905678,163.28758239746094,318100.0
2024-10-24,164.38138841449273,164.3911490539813,162.26215240803288,162.65280151367188,547300.0
2024-10-25,164.9673259462908,165.8755720020447,160.75818090850115,164.9575653076172,518900.0
2024-10-28,165.92441114185215,167.3990873642211,164.8110872205768,165.1431427001953,350000.0
2024-10-29,165.07478239671167,165.52402518640017,163.71730828895062,164.75250244140625,338100.0
2024-10-30,164.41068693257148,166.2173887714383,164.18605810635694,165.07476806640625,290300.0
2024-10-31,165.13338430997027,166.2955413549906,163.93216979950657,163.9810028076172,329900.0
2024-11-01,164.16653293752452,166.98890749293048,163.69775401702358,165.4458770751953,316300.0
2024-11-04,165.66072177477935,166.5787284860389,164.24463934900223,164.32276916503906,191800.0
2024-11-05,163.81495853194275,166.37364684373878,163.81495853194275,166.32481384277344,206200.0
2024-11-06,171.05154898002016,171.05154898002016,168.1119872286225,169.10812377929688,264100.0
2024-11-07,170.12376575088302,171.3542916404713,169.4792059898356,170.62184143066406,412300.0
2024-11-08,170.61209897781401,173.6786238548333,170.40702122427004,171.6472930908203,309200.0
2024-11-11,172.1942029189047,173.8641813863164,171.7840176058394,172.02816772460938,189100.0
2024-11-12,172.51645146428592,173.09265701480297,170.85623379576612,171.58868408203125,179800.0
2024-11-13,171.3933563232422,172.26253001280048,170.95388915917127,171.3933563232422,168400.0
2024-11-14,171.05155682058597,171.67658049046,169.8405818424337,170.02613830566406,198200.0
2024-11-15,168.92257425336157,169.69408202115162,162.28168847937133,162.59420776367188,620500.0
2024-11-18,162.4965371683572,163.89308346527008,160.4847427631967,162.78952026367188,384400.0
2024-11-19,162.52583437609178,163.74658485803732,162.31098109913023,162.99459838867188,287600.0
2024-11-20,163.0922544076903,164.98686142400987,161.77383800717232,164.78176879882812,221800.0
2024-11-21,164.74271987680694,166.24667789967594,163.81495249958823,165.90487670898438,205100.0
2024-11-22,166.1978542572136,168.04364337816776,166.1978542572136,167.49673461914062,241600.0
2024-11-25,168.0241252682644,169.94802951711515,167.72138148625854,168.46359252929688,270100.0
2024-11-26,168.81514749207574,168.81514749207574,167.1549297751935,168.0143280029297,140300.0
2024-11-27,168.62958510670097,169.81127811822287,167.50650063518984,167.71157836914062,167200.0
2024-11-29,168.5514742252474,169.43042360328997,168.06317398247072,168.91282653808594,117300.0
2024-12-02,168.93233680546206,169.05929962886407,166.84241249869427,168.7174835205078,170900.0
2024-12-03,169.39132382716835,169.39132382716835,167.0865464581629,168.3658905029297,160100.0
2024-12-04,167.86783536473908,168.84443572520686,167.02795845866723,168.55145263671875,173400.0
2024-12-05,167.98503908384095,168.40498502885572,166.5396745813458,167.09634399414062,245000.0
2024-12-06,167.58463897320985,168.61005749857284,166.85218865409922,167.14515686035156,209200.0
2024-12-09,167.5455809247015,169.41089147314173,166.24670045963933,166.79359436035156,301700.0
2024-12-10,166.72522539571543,167.36000970992765,164.25442751782737,166.91078186035156,287000.0
2024-12-11,167.8580993317844,170.02615364197325,167.73113649775587,168.2780303955078,418600.0
2024-12-12,167.65298456324717,168.5612306607672,166.78381082569527,167.62368774414062,178300.0
2024-12-13,166.9107848371899,166.99867530040407,165.8462939336225,166.21739196777344,153200.0
2024-12-16,166.158796503823,166.9303042864774,163.66846242787886,163.70753479003906,236100.0
2024-12-17,162.99458751218418,163.00436305250057,159.02959259568405,159.27374267578125,511900.0
2024-12-18,159.85971564038562,160.57262973216018,154.21496674015316,154.50794982910156,468600.0
2024-12-19,154.80093483209816,157.78934478191135,154.5274878931726,155.1525115966797,404700.0
2024-12-20,155.00602554523715,156.04121964416362,153.78527497542004,154.47865295410156,730200.0
2024-12-23,153.49229809203675,155.1818127767919,153.28722033295332,154.8107147216797,194900.0
2024-12-24,155.0646226890186,155.68964639880573,154.2247456819539,155.6212921142578,100500.0
2024-12-26,154.71303442348506,155.89472747069453,154.71303442348506,155.1329803466797,164500.0
2024-12-27,154.12707581536193,155.84588708263334,153.92198318319998,154.4493408203125,145000.0
2024-12-30,153.32624728896786,153.80478680118333,151.37304668656063,153.06256103515625,221700.0
2024-12-31,153.5997311389898,154.54703485122826,152.52546458849,153.4239501953125,317100.0
2025-01-02,153.96102932277924,154.41027201167452,149.85931109671645,150.55270385742188,239400.0
2025-01-03,150.43551553521377,152.07621191768425,149.29289488218893,151.86135864257812,250700.0
2025-01-06,150.39646609155173,151.02148977014832,147.89637137716537,149.34173583984375,369000.0
2025-01-07,152.27153842764793,152.40826189282907,149.0292327240345,149.8397979736328,361200.0
2025-01-08,149.3124422881475,150.6503801368408,148.5311589473614,150.54295349121094,228600.0
2025-01-10,149.14643028639964,150.68946087220502,149.00970681179618,149.85934448242188,350800.0
2025-01-13,149.3514738966303,151.08006056736804,149.3514738966303,150.2890167236328,349300.0
2025-01-14,151.18748931990888,151.81251291278505,149.88860913904762,150.99217224121094,196900.0
2025-01-15,152.46686153360938,153.2481448947014,150.56249358589434,151.9199676513672,206100.0
2025-01-16,152.24223989964935,153.49228725350105,151.67580986403843,152.7500762939453,346300.0
2025-01-17,153.29697420180517,154.25403847264764,152.03715127326387,152.43756103515625,231900.0
2025-01-21,153.0528143054371,156.50997312910235,153.0528143054371,156.0900421142578,270900.0
2025-01-22,155.61149546068765,156.98850552412839,154.63489511528093,155.3478240966797,280000.0
2025-01-23,154.7521036088612,156.070505187951,154.03917459835165,155.88494873046875,149800.0
2025-01-24,155.91424200320077,156.71506145375167,153.54111027377883,154.59584045410156,329600.0
2025-01-27,154.54702831099388,155.20134885433862,152.98446155852756,154.7521209716797,317000.0
2025-01-28,153.88294176224863,156.59788985115384,153.88294176224863,154.71304321289062,204300.0
2025-01-29,155.06462155953,155.10369392333624,152.95516096621085,153.43370056152344,265800.0
2025-01-30,154.1270810917156,154.96694312356598,152.9160912404324,154.42982482910156,274200.0
2025-01-31,154.205198107046,155.66033807623802,153.0918742405619,153.47274780273438,834100.0
2025-02-03,150.96288932286944,153.0821103704106,150.53318276913035,152.3301239013672,364600.0
2025-02-04,152.43753017168066,154.75208290837918,152.43753017168066,154.00985717773438,302400.0
2025-02-05,155.01864663986422,156.3702165851502,154.52894911700784,155.05783081054688,262600.0
2025-02-06,156.54649741836073,156.54649741836073,152.16860045521503,153.22634887695312,446600.0
2025-02-07,154.37223282693162,154.64646222731156,139.11325716004725,140.22976684570312,1221500.0
2025-02-10,141.2875312819042,141.62053697254157,137.99676315893876,140.32772827148438,621900.0
2025-02-11,139.33854663703144,140.1220657147679,137.3699528993658,139.35812377929688,377300.0
2025-02-12,138.06531924654766,140.53339891858562,137.0467400415367,138.7802734375,423500.0
2025-02-13,139.80865498326042,140.8174307728779,138.54524183950096,139.8282470703125,665900.0
2025-02-14,140.72928446288225,142.3158997444021,139.7792700193002,141.80661010742188,512800.0
2025-02-18,141.80661410840983,144.2551019301506,140.93495304164546,143.87313842773438,489600.0
2025-02-19,143.12878909814165,144.45097836650277,142.60971092774975,144.01023864746094,331000.0
2025-02-20,143.94170202111488,144.3824268363581,142.91333415595835,143.6576690673828,283100.0
2025-02-21,144.0004768600077,144.3530597341893,142.20818182828341,143.32469177246094,451900.0
2025-02-24,143.1679580885088,144.25508716788633,141.3854669077713,142.60971069335938,353300.0
2025-02-25,142.87414821729212,145.27366299244076,142.71744142972454,144.66644287109375,336700.0
2025-02-26,143.6282730672493,146.10614126129204,143.59889241233037,143.6184844970703,735600.0
2025-02-27,143.2169157081385,144.14733789807616,142.3648469055319,142.62928771972656,262800.0
2025-02-28,143.14838730085012,143.9221028321513,141.64991403633834,143.72622680664062,348700.0
2025-03-03,143.94169395000412,145.7731579400057,142.68806946190705,143.56951904296875,394100.0
2025-03-04,142.54117057614394,144.90151659055175,142.14941847460233,142.9329376220703,490100.0
2025-03-05,143.0406700510276,145.78297956351986,143.0406700510276,145.3814239501953,445100.0
2025-03-06,144.5195432997619,148.37836251128888,144.02984573371802,148.0355682373047,471700.0
2025-03-07,147.40875736971992,150.20003950079644,146.10616003817648,149.63198852539062,480200.0
2025-03-10,148.93662196596816,150.82684736023063,147.14432711634848,147.467529296875,391100.0
2025-03-11,147.24225796213827,147.45772608292995,144.23552273099082,144.84274291992188,304000.0
2025-03-12,145.18552675241813,145.18552675241813,142.56074026251753,143.02105712890625,299700.0
2025-03-13,143.39324790721705,144.16696350239528,140.79784178568258,141.77723693847656,238400.0
2025-03-14,142.23754924682325,143.86334873443155,141.5617642221919,143.63809204101562,223600.0
2025-03-17,143.49118010431383,144.95048427871978,142.854579225438,144.7937774658203,225200.0
2025-03-18,144.35304428256728,144.49015899982857,142.7762175618708,143.28550720214844,219900.0
2025-03-19,143.324695215245,144.42162804148415,142.47262614233244,143.95150756835938,279600.0
2025-03-20,143.1190209381293,144.38243413158088,140.76846356409283,142.2081756591797,332800.0
2025-03-21,141.03288741960213,142.46281077035695,139.4266801328764,141.83599853515625,601900.0
2025-03-24,142.74685366750688,145.12677688467917,141.9241652673277,144.94070434570312,463800.0
2025-03-25,145.43038233248038,146.15512513486658,142.9231183481365,144.1767578125,325200.0
2025-03-26,144.0200657855328,145.63606187248132,143.2855193924863,145.4989471435547,630400.0
2025-03-27,145.22471455574868,146.80154137661276,144.0004705937233,146.27267456054688,312700.0
2025-03-28,146.2138690740067,146.90924608098447,142.7566060117847,143.90249633789062,239800.0
2025-03-31,143.5597480313838,146.01802456611082,143.08964252694352,145.32266235351562,372500.0
2025-04-01,145.8123486528671,146.93864705079392,144.34325598893645,146.02781677246094,240000.0
2025-04-02,144.95046129125058,148.01597245076098,144.95046129125058,147.42832946777344,247600.0
2025-04-03,143.73601082079833,146.95822887417515,143.4422042640377,145.60665893554688,352900.0
2025-04-04,142.22775504246812,144.91130294785953,137.1544807452422,137.29159545898438,531600.0
2025-04-07,133.5307294902565,139.19163219073434,128.15385974857273,131.87554931640625,629900.0
2025-04-08,134.5493112573588,136.43953673434598,128.57499483049722,130.9059600830078,473800.0
2025-04-09,130.43581304578677,141.44421772943244,128.61415277452573,140.78802490234375,491800.0
2025-04-10,137.11532993446937,140.4158870228316,134.7354067381973,137.8596649169922,309000.0
2025-04-11,137.967394489513,141.72828334567205,136.8606880961678,141.14064025878906,203000.0
2025-04-14,142.79579899814664,143.38342705213157,140.82720541468416,142.78599548339844,249300.0
2025-04-15,143.0896488919898,143.52057023933776,140.807656215774,140.97415161132812,250700.0
2025-04-16,141.09164958012386,142.8153944455794,139.63236050898016,142.0122833251953,307700.0
2025-04-17,142.40403652449308,142.7566193457953,137.81068622127157,140.86639404296875,390600.0
2025-04-21,140.34734719656797,141.0818936596229,138.19268056048412,139.64218139648438,291600.0
2025-04-22,141.52260661323547,143.79481065396374,140.63135339324026,143.01129150390625,217800.0
2025-04-23,144.823151790697,146.24328667195422,144.1865509396658,144.99945068359375,537000.0
2025-04-24,144.88190918887037,148.86805439769142,142.4628170537404,148.3391876220703,424500.0
2025-04-25,147.74178869591145,149.84748263757376,144.52937327021243,145.98866271972656,220500.0
2025-04-28,146.71340875780027,147.9180607088582,145.2247238205769,146.61546325683594,235200.0
2025-04-29,146.67421273095528,148.84847116613122,145.939666366217,147.20309448242188,359900.0
2025-04-30,145.9984330116698,146.89947469973708,144.17675754933848,146.86029052734375,556200.0
2025-05-01,145.82884652255714,147.87212219802424,144.3651647328934,145.66184997558594,445300.0
2025-05-02,150.28867188742916,150.29848992197137,145.18047592473235,149.31614685058594,431600.0
2025-05-05,148.7562082163406,150.51461075676426,148.21593150363898,148.80532836914062,267600.0
2025-05-06,147.59705042912566,149.355437978684,146.78170385931236,148.25521850585938,312000.0
2025-05-07,149.1982877610097,150.44585281383766,147.96052575449374,148.71693420410156,318400.0
2025-05-08,149.10982924733253,151.84075642869666,148.5695526182724,150.65211486816406,302500.0
2025-05-09,151.19241752840685,151.57553070592974,150.23954360160494,150.6128387451172,231600.0
2025-05-12,153.03923920333585,153.82511675438303,150.98614553061785,152.77401733398438,352500.0
2025-05-13,153.55005471787953,153.55005471787953,150.49496693494288,150.9272003173828,339400.0
2025-05-14,150.90755987438112,150.90755987438112,148.30435635067707,149.78768920898438,350100.0
2025-05-15,149.65996739529265,152.7346909024297,149.65996739529265,152.21405029296875,278100.0
2025-05-16,152.43998138798113,154.3751983205255,151.860402608422,154.2376708984375,278600.0
2025-05-19,153.5991717253283,155.5442069170815,153.5500515711728,155.28880310058594,185400.0
2025-05-20,157.43029958325823,157.43029958325823,155.12180229520027,155.73085021972656,388100.0
2025-05-21,154.09032526701444,154.86636965019244,153.07851316508325,153.68756103515625,319800.0
2025-05-22,153.59916031317496,154.483263064821,152.81328287317552,153.884033203125,278900.0
2025-05-23,152.3810559407016,153.4223372220158,151.53624028030902,153.18658447265625,260500.0
2025-05-27,154.25734853178614,155.64245601461047,153.92335544765425,155.36740112304688,352800.0
2025-05-28,155.36739421063615,156.03538034918074,154.4832763933447,154.6208038330078,364400.0
2025-05-29,155.0432217337395,155.86838638532782,154.05106054476073,155.53439331054688,232100.0
2025-05-30,155.44598590152702,155.97644460873903,153.77599055020596,155.6031494140625,335100.0
2025-06-02,154.75833131600515,156.2613301068848,152.51859016122646,154.13946533203125,349600.0
2025-06-03,153.4223415376803,154.66010346409962,153.24552697068694,153.5009307861328,397800.0
2025-06-04,153.72687442684654,153.7563435201819,147.63633532186296,147.7542266845703,831900.0
2025-06-05,148.90354964866944,150.6324678850086,146.41822312608508,149.7974853515625,482400.0
2025-06-06,151.6443086942385,151.75236704132885,149.52245886221365,150.60302734375,264700.0
2025-06-09,150.01363456854594,150.4753220758684,148.68746527135272,148.92323303222656,388400.0
2025-06-10,149.47332984142486,150.2984944487939,148.19628081228734,149.8367919921875,323500.0
2025-06-11,150.29849644880608,150.8780752886444,148.92322208489034,149.23756408691406,380800.0
2025-06-12,148.73658814675593,151.8899014382214,148.73658814675593,151.6246795654297,337200.0
2025-06-13,150.2985051515068,151.00579343372206,148.06858195648448,148.49099731445312,361200.0
2025-06-16,148.5695758002576,150.20025395390124,148.4516844355203,149.01162719726562,346200.0
2025-06-17,147.9998142251002,148.58921108822153,146.49683048956007,146.81117248535156,379700.0
2025-06-18,146.4869866848808,148.0685595503163,146.4869866848808,147.05674743652344,383200.0
2025-06-20,147.63634617447357,148.10788168123327,146.35931206442524,147.64617919921875,570500.0
2025-06-23,146.85047583401547,151.2218996436103,146.85047583401547,151.0745391845703,356500.0
2025-06-24,151.84075875399455,151.84075875399455,150.47528764771968,151.15310668945312,246600.0
2025-06-25,151.14331042765082,151.80147850793904,150.0725600428252,151.21206665039062,264700.0
2025-06-26,151.80147000378724,152.83293320202972,150.41636270870066,151.75234985351562,658200.0
2025-06-27,151.92917357890042,153.35356794604172,151.50675828997822,153.06869506835938,643100.0
2025-06-30,153.27497651207332,153.7366789194791,151.88005125606443,153.66790771484375,315500.0
2025-07-01,153.66791520781175,156.97842145950187,153.20622776725833,156.20236206054688,338300.0
2025-07-02,156.2122087454969,157.69554147577566,155.84873159459067,157.4892578125,293500.0
2025-07-03,157.76429959403765,158.51087491476963,156.99807321531225,158.19651794433594,235100.0
2025-07-07,158.10811741535406,159.5030428051159,157.7151861749073,158.11795043945312,313900.0
2025-07-08,158.05901225349746,159.7093565965001,157.02756390215916,157.22402954101562,342700.0
2025-07-09,157.10611832400417,157.18470756749457,155.30844371561136,156.90965270996094,252800.0
2025-07-10,156.37920902223024,157.52854871323547,155.53439331054688,155.53439331054688,361600.0
2025-07-11,155.7603190354981,155.7603190354981,153.86440405350666,155.11196899414062,292000.0
2025-07-14,154.36538707594116,156.13360757296107,153.92333569902758,154.77796936035156,276600.0
2025-07-15,154.95480896302266,155.21021277775083,151.34961151557988,151.43801879882812,254200.0
2025-07-16,151.2022641344678,152.8624265472358,150.83880194564915,152.24354553222656,261900.0
2025-07-17,152.00777788286257,153.6482890740105,151.78182817574609,153.27499389648438,397700.0
2025-07-18,154.08052265083427,154.43416676966828,152.18459265589,153.6188201904297,243100.0
2025-07-21,153.65810471165034,153.9036904847458,152.49894705753542,152.70523071289062,205900.0
2025-07-22,153.35357548550758,156.54619042612177,152.48910879729814,156.3595428466797,449900.0
2025-07-23,157.24368095923748,158.99225063096037,156.33009400189493,158.80560302734375,450500.0
2025-07-24,158.559320268112,161.82979531304568,157.40675735764995,159.406494140625,431900.0
2025-07-25,159.63305506440543,160.65753702914088,158.3819926877325,158.5888671875,296300.0
2025-07-28,158.79573614749467,159.56410142477418,155.80108366056007,156.33302307128906,308500.0
2025-07-29,156.67779828906407,157.21959813532774,154.8750906357904,156.45123291015625,388200.0
2025-07-30,156.4315385130725,156.55958937255576,152.60940298667225,154.45150756835938,580700.0
2025-07-31,153.456563501654,155.0031544025075,152.86550639902828,154.79627990722656,679700.0
2025-08-01,154.6288158726098,155.76165777291718,138.9856590147076,139.24179077148438,1012300.0
2025-08-04,140.98538123418317,140.98538123418317,135.03547356824112,137.05490112304688,839000.0
2025-08-05,137.2617519084508,138.9659599251385,135.63636753338238,138.12863159179688,540800.0
2025-08-06,138.21731427393004,138.6605996470306,135.4984842918658,136.4737091064453,515300.0
2025-08-07,137.71491162131494,139.37970798596095,136.83818640949156,138.39462280273438,564000.0
2025-08-08,138.59162361799454,139.9313399406848,138.48326365692378,138.65072631835938,428700.0
2025-08-11,139.222090228796,139.5077583171329,137.12385398637957,137.7838592529297,349500.0
2025-08-12,138.12862654943748,138.98564573069308,137.15338694127408,137.399658203125,286100.0
2025-08-13,137.60654859738395,139.33044762978915,137.17310872138614,139.32058715820312,729900.0
2025-08-14,138.09910131689176,138.09910131689176,134.40503169053025,136.2766876220703,875800.0
2025-08-15,136.29638497225332,136.8775816161289,135.81368782683418,136.65101623535156,770500.0
2025-08-18,136.81847442171076,137.4883401327873,135.3014499206359,135.83338928222656,529500.0
2025-08-19,136.20773671589527,138.4241784468644,136.20773671589527,137.50804138183594,333100.0
2025-08-20,137.82326302031893,139.1432734762502,137.18294867232404,139.07431030273438,519200.0
2025-08-21,138.53254347475354,139.78359091939785,138.14836082862038,138.54238891601562,270400.0
2025-08-22,139.15312448451428,141.19225798353852,139.08417633944555,139.32058715820312,356500.0
2025-08-25,138.8674588166062,139.4979127296023,136.88744301904194,137.47848510742188,245800.0
2025-08-26,136.9957973337368,138.06953652648775,135.95159446141804,137.62625122070312,442900.0
2025-08-27,137.01548945470773,138.47342629437426,136.95638675089546,137.3602752685547,729100.0
2025-08-28,138.07938928608468,138.07938928608468,135.35069910089788,136.8184814453125,320800.0
2025-08-29,137.09429553325865,137.7838521169858,136.2865335440943,137.19281005859375,370700.0
2025-09-02,135.37040364310914,136.46384879424832,134.13904716800675,134.37547302246094,310600.0
2025-09-03,134.0504057475134,134.1489052560839,132.4348665011149,133.20323181152344,382300.0
2025-09-04,134.3163671782823,136.41458834161003,133.0258929963137,136.3948974609375,401800.0
2025-09-05,136.94654859153968,138.7197049562119,135.5772807659998,136.55250549316406,440800.0
2025-09-08,136.52295752982062,137.91193130257207,135.62652636886406,136.23728942871094,616100.0
2025-09-09,136.19786500295976,137.39967006705987,133.08500740809663,135.00592041015625,637100.0
2025-09-10,134.09967481585545,135.409840147903,132.8387667580311,134.21788024902344,685100.0
2025-09-11,134.71040519706986,136.2175843964125,133.84352538471833,135.05519104003906,477500.0
2025-09-12,134.58232620679007,135.00592063066784,133.20321303157323,133.2130584716797,261300.0
2025-09-15,133.9420357302436,134.13904976383114,132.62202517087903,132.8387451171875,298000.0
2025-09-16,132.77962562814162,133.40023410540573,132.0999294759084,133.19337463378906,474800.0
2025-09-17,133.4002434882413,135.02564317844585,132.18859283278562,132.6417236328125,377400.0
2025-09-18,132.88798558145595,133.48888814617573,132.07037810452255,132.49395751953125,254800.0
2025-09-19,132.65158018177598,133.0850200863436,131.35126046807318,132.4348602294922,877200.0
2025-09-22,132.11960688188879,132.92738386712793,130.69123651388878,130.74049377441406,402100.0
2025-09-23,131.0261738005905,131.95215627068484,130.00169183165633,130.0509490966797,319700.0
2025-09-24,130.0312388605038,131.32169799268698,129.38107905871175,129.5386962890625,353300.0
2025-09-25,129.53870141670419,130.54349251095573,128.32705085173455,128.8688507080078,388700.0
2025-09-26,129.37123644965243,130.4548211118124,129.00675974879576,130.31690979003906,274400.0
2025-09-29,130.4252615354418,130.70108416159653,129.40077964275358,130.29721069335938,540600.0
2025-09-30,129.74557555443596,131.76498814664785,129.74557555443596,131.66648864746094,310400.0
2025-10-01,131.34141139667054,132.35604794922318,130.33662028487404,132.1393280029297,310100.0
2025-10-02,131.66648573117217,132.38559368725765,130.97692912730892,131.19363403320312,398500.0
2025-10-03,130.49423360821496,131.58767874762543,130.45482178395852,131.23304748535156,402000.0
2025-10-06,130.90798617122863,131.2133602121639,129.45006412198484,129.91305541992188,447100.0
2025-10-07,130.13962210171118,130.53365021684988,127.873922861641,128.6422882080078,438800.0
2025-10-08,129.2234697553329,130.04109227782575,128.31719317203184,129.64706420898438,361300.0
2025-10-09,129.73572663806536,130.8587232410274,128.2580987377885,128.6619873046875,554200.0
2025-10-10,128.98704858156654,130.04108184834632,127.95270619480443,128.97718811035156,426000.0
2025-10-13,129.03630601031335,130.37602238234368,128.2186835523413,128.2777862548828,311400.0
2025-10-14,128.10048555861533,129.10527677147402,127.11540026045824,127.86407470703125,337400.0
2025-10-15,127.86406447402499,128.44526114593418,125.95299674355027,126.18942260742188,438300.0
2025-10-16,126.5243419047704,127.56852978216413,125.94313774513942,127.23360443115234,352700.0
2025-10-17,127.23360344544018,128.15958590499872,126.92822944945955,127.4109115600586,339700.0
2025-10-20,127.67688307805489,128.1497197271898,126.11060134384137,128.06106567382812,240500.0
2025-10-21,128.66197064438,129.80467301345007,127.19418837559832,128.62257385253906,311600.0
2025-10-22,128.70137488096933,130.13960588126338,128.04136960320932,128.12017822265625,357500.0
2025-10-23,128.27838836608,130.0482160538345,128.19928781482736,129.29678344726562,378600.0
2025-10-24,129.27699821696652,129.41542040316887,127.09188897025071,127.42807006835938,489300.0
2025-10-27,127.68513804202082,128.43657062662018,127.00290900843953,127.32919311523438,521700.0
2025-10-28,127.29953156353623,127.65547648827675,126.03395296154486,126.6568603515625,413500.0
2025-10-29,125.84608767724626,126.06361040803851,122.02957306455488,122.9095458984375,651100.0
2025-10-30,122.6425973459498,124.10591981246533,121.65386309537952,122.95899200439453,702600.0
2025-10-31,113.99117408852003,116.76951495369767,102.06704129042897,114.70306396484375,2758200.0
2025-11-03,114.78215353846566,114.78215353846566,107.07003104374891,111.84561920166016,1661000.0
2025-11-04,113.07164922422088,114.69317278774453,111.26226373964292,112.8936767578125,1029100.0
2025-11-05,113.04198468525121,114.73271928879292,111.49955417930168,114.26801300048828,896900.0
2025-11-06,113.72420198995826,115.64234871180304,112.517952627641,114.84147644042969,880300.0
2025-11-07,114.92057976181373,115.60280123250854,113.39792818360942,114.91069030761719,697200.0
2025-11-10,114.68328006091402,115.45449154553131,112.71570107535919,115.06888580322266,514000.0
2025-11-11,115.64235215314066,118.16362740289492,115.64235215314066,116.93759155273438,484800.0
2025-11-12,117.0067994446968,118.32181771681981,116.58165098825971,116.8288345336914,547500.0
2025-11-13,116.96726664292429,120.50692958090833,116.96726664292429,118.84585571289062,679400.0
2025-11-14,118.42069332802943,119.33033453666947,117.05624283023447,117.27376556396484,521200.0
2025-11-17,117.1551218108406,118.14385608312521,116.24548809076526,117.99554443359375,820200.0
2025-11-18,118.31193671929118,118.75686408712447,116.72995598156568,117.96587371826172,817400.0
2025-11-19,118.16362983624596,118.16362983624596,116.38390520642318,116.67063903808594,598900.0
2025-11-20,116.67063483535937,118.26249749040201,116.04773500908134,117.24410247802734,507400.0
2025-11-21,116.79916971414367,120.86286792776397,116.79916971414367,120.1509780883789,509100.0
2025-11-24,119.48852930748254,121.02107037008182,119.08315219875638,120.10154724121094,740000.0
2025-11-25,121.0309595133857,122.68214385066395,121.0309595133857,122.04935455322266,543600.0
2025-11-26,121.63407548431789,123.11717675407199,121.63407548431789,122.41517639160156,538000.0
2025-11-28,122.23721179455744,124.65961521692697,122.23721179455744,123.34459686279297,315700.0
2025-12-01,123.47312464549341,123.55222519221778,121.64396787729149,121.89115142822266,536800.0
2025-12-02,122.37563109798752,122.46462110038372,119.4390968008952,120.2300796508789,325400.0
2025-12-03,120.08176988930819,122.86011822072538,120.04222715811682,120.68489837646484,543100.0
2025-12-04,120.82332005860296,122.6821452414219,120.55636513524256,120.64534759521484,708000.0
2025-12-05,120.61568357957054,122.11856379579517,119.26112254625717,120.53659057617188,537000.0
2025-12-08,119.55773823925648,120.72444490270962,117.95599365521366,118.71731567382812,496600.0
2025-12-09,118.25260671307173,118.49979025868578,114.06037589162156,114.41632080078125,640300.0
2025-12-10,114.86124902547321,116.47289058274676,113.83296456280685,115.84998321533203,734700.0
2025-12-11,116.6310870053096,117.33308739219939,115.84010415999195,116.68052673339844,389700.0
2025-12-12,117.18477675810965,120.26963024864754,116.32458281214376,120.10154724121094,656400.0
2025-12-15,120.11143594513233,121.08039125301917,119.12270172858626,120.95185852050781,588600.0
2025-12-16,121.2880193092629,122.45472593627359,118.17350515259987,121.44622039794922,644800.0
2025-12-17,120.73433285185864,123.19627887906455,118.72720364799784,122.2372055053711,567300.0
2025-12-18,122.2767604710972,122.72169540087228,120.65523693661119,121.23859405517578,457100.0
2025-12-19,121.95047437935206,122.92932668285609,119.89391294648267,120.02244567871094,1300400.0
2025-12-22,120.02244905131522,122.30642273678362,119.70605439556444,121.35723876953125,527800.0
2025-12-23,121.48577799610219,121.64397155088497,119.95323691666961,120.81343841552734,311700.0
2025-12-24,121.1495961120519,121.78238537460243,120.38827412360435,121.36711883544922,198000.0
2025-12-26,120.99141254975284,122.08890816765887,120.34873378036154,121.86149597167969,306000.0
2025-12-29,121.90103810595791,122.90954365167185,120.9419647432383,121.82193756103516,400200.0
2025-12-30,121.41656795360201,122.89966931682952,121.04084411378047,121.35723876953125,289800.0
2025-12-31,120.15097596397585,121.94058998507745,119.98289296138277,120.58602142333984,314300.0
2026-01-02,120.36849451795845,121.61430167163682,119.41931062963688,121.15948486328125,295100.0
2026-01-05,120.3882753233874,123.17650539661395,120.3882753233874,121.61430358886719,435700.0
2026-01-06,120.84309994356978,121.4659997987374,118.75687009500949,119.20179748535156,777200.0
2026-01-07,119.31055741898699,120.57613602320409,116.28503309681528,119.0831527709961,478500.0
2026-01-08,118.56900865138992,121.98014631699301,118.17351344536358,121.06062316894531,330000.0
2026-01-09,120.70467850674399,123.5621198728979,120.09166055886544,122.4547348022461,429100.0
2026-01-12,122.60303947816963,123.88839694168902,121.59453392415777,123.72030639648438,477300.0
2026-01-13,123.64121411549613,124.02681984811237,121.15948917361368,122.10867309570312,351900.0
2026-01-14,122.71180688445504,125.72744932780128,122.71180688445504,125.42093658447266,611700.0
2026-01-15,125.70766789113175,125.78676843900955,123.11718152395939,123.7005386352539,381000.0
2026-01-16,122.60304567683241,123.78952374665012,121.85160554277793,123.30504608154297,363400.0
2026-01-20,123.49290649216461,124.1158063396922,122.0493554255934,122.4250717163086,275100.0
2026-01-21,122.90954323158518,124.2047901340779,122.50416614126715,123.6016616821289,421000.0
2026-01-22,123.64121667891544,124.98589581561515,122.66236437418617,123.0677490234375,369700.0
2026-01-23,122.93921055756546,124.85735737798285,122.4745118058816,124.58051300048828,429500.0
2026-01-26,124.99577817123766,125.55935637440064,123.69064930373163,124.92656707763672,315400.0
2026-01-27,123.54233481410213,124.87713201390274,122.77112334791536,123.33470153808594,303100.0
2026-01-28,122.80079414026893,123.66099567657822,121.86149959484645,122.30642700195312,347800.0
2026-01-29,122.88978028418853,123.86862507511535,121.20892754069328,122.4547348022461,386000.0
2026-01-30,121.52533188143772,123.60167232496788,121.27814831569736,123.54234313964844,512700.0
2026-02-02,122.80078342815366,124.49152553193812,122.80078342815366,123.42369079589844,489100.0
2026-02-03,122.51406220907022,126.48877049938638,122.29653947125486,123.22594451904297,658700.0
2026-02-04,124.77433039015442,129.44927260782487,123.77184577350829,128.26812744140625,589400.0
2026-02-05,126.71975064755804,128.1192596554473,121.05225107397254,123.05722045898438,2144200.0
2026-02-06,126.58078326238557,134.97782150042084,126.58078326238557,133.31031799316406,1045700.0
2026-02-09,132.5857587104382,138.531180271334,132.2582131007177,137.43936157226562,1043400.0
2026-02-10,136.78427392403074,139.88104683101494,136.78427392403074,139.126708984375,622100.0
2026-02-11,137.99519392074043,139.50388475135443,137.56840169460276,138.9678955078125,584300.0
2026-02-12,139.11678651599092,140.94308767923593,138.3525134196047,139.46417236328125,572700.0
2026-02-13,139.46418324151318,141.8661694437224,139.3649366253535,141.51878356933594,471900.0
2026-02-17,138.2234773285034,142.55102629654255,138.2234773285034,140.59568786621094,614700.0
2026-02-18,140.41703714664675,142.04482998774162,139.791721402891,140.66517639160156,582000.0
2026-02-19,140.5956812663536,142.25326464590432,139.98030082414553,142.09445190429688,525500.0
2026-02-20,142.0547550361601,144.0597244456509,140.94309602664507,143.97039794921875,664500.0
2026-02-23,142.42200863639354,145.15154037209857,142.06468751245615,144.63540649414062,513500.0
2026-02-24,144.98279666295065,145.8165408414096,142.77931908758302,143.06715393066406,429800.0
2026-02-25,141.35004724560304,142.59074350649368,139.38477346379526,141.61802673339844,348900.0
2026-02-26,142.45176871915783,142.84878541602816,139.95052112226952,140.73463439941406,331300.0
2026-02-27,140.47658357934912,142.9381205686862,139.9505296087492,142.64036560058594,344600.0
2026-03-02,141.93563886113196,142.2830398395081,140.56590547180699,141.60809326171875,335000.0
2026-03-03,139.5931967078321,140.26814325067423,135.90088396317486,138.71974182128906,347300.0
2026-03-04,138.302888395737,138.47162126788456,134.9976717766612,136.02000427246094,389000.0
2026-03-05,134.9877396254558,135.32520533966746,133.40957777498073,133.72718811035156,452300.0
2026-03-06,133.0026313554941,133.0026313554941,130.02496050425168,131.096923828125,398500.0
2026-03-09,129.99519404049997,132.98278521657096,126.5807954705799,132.75450134277344,545700.0
2026-03-10,132.3574660154593,133.1316591702968,130.42196798314936,131.14654541015625,503100.0
2026-03-11,130.8190202738326,132.28800044532838,129.0721101988683,131.03738403320312,563800.0
2026-03-12,130.29295237048808,131.8016279987067,127.68252279954663,127.90088653564453,620600.0
2026-03-13,129.18127925269795,129.18127925269795,126.10436183607526,127.69244384765625,660600.0
2026-03-16,128.5162697582332,130.43191254892886,125.06217580985977,128.0894775390625,370700.0
2026-03-17,129.00262050471235,130.04480827067758,127.2855013216824,128.53611755371094,276700.0
2026-03-18,123.45423058912087,125.63786042046195,120.51626292882625,123.29542541503906,910500.0
2026-03-19,122.0944332187195,123.8909588849741,120.54603921873606,123.04728698730469,518500.0
2026-03-20,123.33512999241371,123.33512999241371,119.41452545613383,120.15894317626953,1481500.0
2026-03-23,122.5907105268858,125.39964092902298,122.07457667427936,123.21601867675781,455200.0
2026-03-24,122.24332284607306,124.28798782763778,121.95548040949986,123.2259521484375,405000.0
2026-03-25,124.50634549167631,125.62793211237509,122.78921864642815,124.88351440429688,337200.0
2026-03-26,124.28798636131239,126.3922023143744,123.19617519683187,123.76193237304688,442100.0
2026-03-27,123.01751427118627,123.28550132328671,120.85373975633635,121.08202362060547,381400.0
2026-03-30,121.64777727824665,123.01751071469691,120.19864504103799,122.44182586669922,562000.0
2026-03-31,123.46415851677581,126.01502957768723,122.67010992701152,125.08202362060547,557800.0
2026-04-01,126.39219982096562,127.68252689973865,125.38972274230011,125.80659484863281,380200.0
2026-04-02,124.2085781211438,126.14406117582702,123.32520302720033,125.07210540771484,297500.0
2026-04-06,123.66266876079281,125.25076596450165,123.66266876079281,125.07210540771484,461100.0
2026-04-07,124.38723692091199,126.22346576757812,123.8711106378232,124.67507934570312,376900.0
2026-04-08,130.4021481364575,131.68254004802253,127.19617800807119,131.03738403320312,645200.0
2026-04-09,130.24332882387228,131.45424955756675,126.39220287440348,130.42198181152344,424100.0
2026-04-10,131.2656579543429,131.71230555728022,129.87608426848973,130.521240234375,407400.0
2026-04-13,129.82646170678544,131.43439923843442,126.63042687940094,131.126708984375,396300.0
2026-04-14,130.2532453341348,131.73216065356567,129.99518597737963,130.03488159179688,315500.0
2026-04-15,129.83638260646234,130.05474636457114,127.64284005257605,128.6850128173828,407100.0
2026-04-16,125.95547520842267,129.35994576168224,125.95547520842267,127.33512115478516,393800.0
2026-04-17,128.6849981610624,131.31528307681364,128.6849981610624,129.65771484375,401100.0
2026-04-20,129.59817078840075,131.00759986778516,128.69494031122633,129.945556640625,403600.0
2026-04-21,129.72718762909471,131.2656538985368,125.74703979492188,125.74703979492188,310200.0
2026-04-22,126.33265459801167,126.33265459801167,122.04480863207884,123.62297821044922,458900.0
2026-04-23,124.44679072012924,126.49146323670142,123.51379231359721,124.01007080078125,440800.0
2026-04-24,123.48401687155638,123.48401687155638,121.65770810014067,123.1564712524414,440900.0
2026-04-27,123.11676900112164,125.29047121573323,122.62049050993973,123.8016357421875,359700.0
2026-04-28,125.18128618602746,125.70734016180099,122.79914797388655,124.8338851928711,354300.0
2026-04-29,124.20857785922294,124.96292327213307,121.87607050853111,121.9852523803711,448400.0
2026-04-30,122.51130595027864,125.14158341040145,120.97283963229869,122.75944519042969,764800.0
2026-05-01,126.26316859263083,127.5237125861033,117.0224658192811,118.13412475585938,989400.0
2026-05-04,117.79666211505766,120.84381172589876,116.58574139374336,119.7023696899414,739600.0
2026-05-05,120.00014032911528,122.78922301811379,119.92073395333378,121.1217269897461,628600.0
2026-05-06,122.74597925597982,125.94466800462597,121.24129756714204,122.19791412353516,917000.0
2026-05-07,122.5068295340525,126.02439054042098,122.13813047351475,124.66918182373047,749700.0
2026-05-08,124.78875603965518,125.4165335007669,119.9658058031768,120.56369018554688,794900.0
2026-05-11,120.79288554794945,120.79288554794945,119.0191585502766,119.53732299804688,706100.0
2026-05-12,120.02559365453983,120.43415267647454,116.72725880994862,117.6340560913086,696600.0
2026-05-13,117.58423293808002,118.33159035082205,116.01976505817387,117.46465301513672,679500.0
2026-05-14,118.31166263789773,119.73662439056804,116.62761485678391,117.57426452636719,531000.0
2026-05-15,117.49455009110837,117.5045093824967,114.06666843041747,114.26596069335938,447000.0
2026-05-18,115.19268785792543,116.90662874327987,114.76420263658683,115.40194702148438,433100.0
2026-05-19,115.48166685737739,115.63113986049136,112.05378509001822,113.20970153808594,575800.0
2026-05-20,113.66807993613209,115.04321484042606,111.15696237122292,114.85388946533203,562600.0
2026-05-21,116.08951407739181,116.08951407739181,112.37265332877841,115.1030044555664,345600.0
2026-05-22,115.39198749681162,116.38846404651633,114.30582410432685,115.82047271728516,405800.0
2026-05-26,115.79056648170686,116.55785764558959,114.96349676302546,115.96993255615234,344500.0
2026-05-27,116.52796630163347,117.69384200162881,114.32575411191587,114.89374542236328,464000.0
2026-05-28,114.40547144179769,115.93007936247552,112.95061657623215,115.58131408691406,510100.0
2026-05-29,114.65458561775299,116.84683851674723,113.34920381323532,115.44180297851562,559600.0
2026-06-01,114.28589767180515,114.72434218302038,111.63526640610465,111.9840316772461,706800.0
2026-06-02,111.5555436879482,112.65167394505289,110.84804626905223,111.78473663330078,452400.0
2026-06-03,111.29646253608045,113.61824699938008,111.29646253608045,112.13349914550781,372600.0
2026-06-04,114.54497230632394,115.35212345281656,111.14699134502068,112.15343475341797,337600.0
2026-06-05,112.69152600064275,114.18624078068318,111.58544405772433,112.96057891845703,466300.0
2026-06-08,111.86445781905672,112.24311616501637,110.55906839000053,111.54558563232422,422200.0
2026-06-09,112.88085932662787,115.74074968498803,112.27300803930216,115.49163055419922,444400.0
2026-06-10,115.74074928767203,116.13934141606836,112.97054577921195,114.26596069335938,496800.0
2026-06-11,114.70441351982215,116.59772043978674,113.85740999319688,116.16923522949219,395200.0
2026-06-12,117.48458764205596,118.05257897569324,115.96993901734801,117.30522155761719,342600.0
2026-06-15,118.28175862932584,120.31457162088154,117.14577601676713,117.66394805908203,576100.0
2026-06-16,118.08246565966249,120.62348378448296,113.36912845320511,120.22489166259766,474700.0
2026-06-17,121.19147655168894,121.918900150595,119.03908362900873,119.56721496582031,680500.0
2026-06-18,120.03556323646836,122.1182031608104,118.69032142639777,119.89605712890625,750600.0
2026-06-22,119.13873446752551,120.58363003359555,118.46113010611298,119.57718658447266,468400.0
2026-06-23,119.93591657137902,122.14809569936509,118.6604278207416,120.1850357055664,514100.0
2026-06-24,121.55021059109053,124.60939323702425,121.34094382937874,123.84210205078125,404900.0
2026-06-25,125.28699706013307,127.68850153642342,124.45991971828299,125.98452758789062,363500.0
2026-06-26,125.49625757990486,126.67210019838983,124.3204149614199,125.53611755371094,727400.0
2026-06-29,125.16742108368359,125.60587320209562,123.48337326752176,124.84854888916016,446600.0
2026-06-30,124.16097333332938,125.86494727656601,123.5033027809896,124.75885772705078,329300.0
2026-07-01,124.67914609082169,126.39307933521575,123.66273577346423,124.80868530273438,405600.0
2026-07-02,125.82508774888942,127.77818082996899,124.96812492977865,126.5325927734375,468400.0
2026-07-06,125.98452783897301,126.6023460237271,123.74245564919634,125.56600952148438,431400.0
2026-07-07,126.18381913439254,128.26645901687073,125.71548155556971,127.2400894165039,392700.0
2026-07-08,126.00445175211411,126.26353777363065,122.60647080352626,123.77234649658203,537700.0
2026-07-09,124.02146439127118,125.03787467960888,123.34386006655016,124.0114974975586,302100.0
2026-07-10,124.55956853594634,126.53259544666133,123.93179104742975,125.08769989013672,385200.0
2026-07-13,125.64571994715708,126.72191640641843,123.96167980892794,124.449951171875,391600.0
2026-07-14,127.96751666781715,128.95403392567474,127.5091383673285,127.82801055908203,739900.0
2026-07-15,129.25298235497795,130.3092450844948,127.99741214779503,128.65509033203125,466800.0
2026-07-16,129.56187796196684,134.6040465870392,129.56187796196684,134.27520751953125,579300.0
2026-07-17,135.351401437915,136.16850424088722,130.24944675099272,132.1427459716797,530800.0
2026-07-20,131.9135687694055,131.9135687694055,129.2928306127641,129.4522705078125,422900.0
2026-07-21,130.07008242817932,130.59821378154385,127.46927803301472,128.45579528808594,328800.0
2026-07-22,129.35261865201468,130.02025611657908,128.02730301458666,128.71487426757812,309900.0
2026-07-23,128.39600579528673,129.36258923692642,127.71839385448645,128.54547119140625,382800.0
2026-07-24,129.13338680160044,132.26232242316664,129.13338680160044,131.8936309814453,335900.0
2026-07-27,132.72071171310446,133.60757521827134,132.19258036761323,132.9000701904297,411200.0
2026-07-28,134.9030016293852,137.54365843276426,134.3549364800917,137.32443237304688,593100.0
2026-07-29,135.52081464440568,136.11870667337666,134.0759266469227,135.75,580000.0
2026-07-30,136.39999389648438,136.39999389648438,133.11000061035156,133.8699951171875,627000.0
2026-07-31,137.4600067138672,139.57000732421875,132.1699981689453,133.9600067138672,886500.0
2026-08-03,137.22999572753906,138.4600067138672,134.52999877929688,136.77000427246094,642500.0
2026-08-04,137.8699951171875,137.8699951171875,135.33999633789062,136.17999267578125,511900.0
2026-08-05,136.8699951171875,136.8800048828125,134.8699951171875,136.75,454800.0
2026-08-06,138.6199951171875,138.69000244140625,134.6699981689453,135.77999877929688,545000.0
2026-08-07,135.05999755859375,137.67999267578125,134.7100067138672,135.4199981689453,686300.0
2026-08-10,134.38999938964844,134.52000427246094,132.92999267578125,133.67999267578125,446700.0
2026-08-11,132.8000030517578,135.0500030517578,132.8000030517578,134.75,343700.0
2026-08-12,133.50999450683594,134.47000122070312,132.27000427246094,133.14999389648438,315100.0
2026-08-13,134.44000244140625,134.44000244140625,132.08999633789062,132.57000732421875,490800.0
2026-08-14,132.08999633789062,132.75,129.55999755859375,132.10000610351562,381600.0
2026-08-17,133.16000366210938,133.16000366210938,130.22000122070312,131.74000549316406,374500.0
2026-08-18,132.75,133.47000122070312,131.22000122070312,131.72999572753906,500100.0
2026-08-19,133.0500030517578,134.3800048828125,132.2899932861328,132.92999267578125,390400.0
2026-08-20,131.4499969482422,133.8300018310547,130.89999389648438,132.9600067138672,420900.0
2026-08-21,134.0399932861328,135.1300048828125,133.10000610351562,134.8000030517578,400500.0
2026-08-24,135.36000061035156,136.33999633789062,134.38999938964844,134.75,282300.0
2026-08-25,135.58999633789062,135.58999633789062,133.22000122070312,134.72000122070312,280900.0
2026-08-26,135.0,136.63999938964844,134.44000244140625,135.24000549316406,281400.0
2026-08-27,133.77999877929688,134.69000244140625,132.25999450683594,132.86000061035156,295700.0
2026-08-28,133.5500030517578,133.66000366210938,132.0399932861328,132.99000549316406,325400.0
2026-08-31,132.2100067138672,132.44000244140625,130.8300018310547,131.6199951171875,389200.0
2026-09-01,131.64999389648438,132.07000732421875,130.77999877929688,130.9199981689453,418200.0
2026-09-02,131.27000427246094,132.25999450683594,129.69000244140625,130.3300018310547,472500.0
2026-09-03,130.64999389648438,130.64999389648438,126.98999786376953,128.30999755859375,340000.0
2026-09-04,127.52999877929688,128.47000122070312,126.52999877929688,127.41000366210938,324000.0
2026-09-08,126.19999694824219,126.98999786376953,124.25,124.33999633789062,362200.0
2026-09-09,123.97000122070312,123.97000122070312,121.08999633789062,122.11000061035156,383000.0
2026-09-10,122.05000305175781,123.12000274658203,120.73999786376953,123.05000305175781,435100.0
2026-09-11,124.8499984741211,125.5999984741211,123.05999755859375,124.83999633789062,491900.0
2026-09-14,125.27999877929688,126.20999908447266,124.0,124.91000366210938,423200.0
2026-09-15,124.8499984741211,124.86000061035156,123.41000366210938,124.68000030517578,474700.0
2026-09-16,124.83999633789062,126.25,123.19999694824219,124.70999908447266,461600.0
2026-09-17,125.66000366210938,126.22000122070312,124.55000305175781,125.5,551500.0
2026-09-18,125.48999786376953,125.7699966430664,124.41000366210938,124.44000244140625,821300.0
2026-09-21,124.83999633789062,125.9800033569336,123.31999969482422,123.4000015258789,424400.0
2026-09-23,125.43000030517578,125.72000122070312,124.5,124.73999786376953,335300.0
2026-09-24,124.51000213623047,124.98999786376953,122.31999969482422,122.58000183105469,177206.0
