Date,Open,High,Low,Close,Volume
2023-09-01,128.02733249082675,128.69102305726173,127.46943554218218,127.498291015625,252000.0
2023-09-05,126.66145382399552,126.95002327114638,122.50610368767913,122.70809936523438,325300.0
2023-09-06,122.91972673122726,123.13133602720143,121.39032026937542,121.59232330322266,291100.0
2023-09-07,121.47688528995286,122.32334442871263,120.37071217704028,120.58232879638672,328600.0
2023-09-08,120.72662281806907,121.84240961695716,120.35148690529728,120.53424072265625,238800.0
2023-09-11,122.15019934654015,123.05437674267795,121.59230968164995,122.16944122314453,333500.0
2023-09-12,121.30375701204977,122.43878571398,120.6400516113284,121.70774841308594,258000.0
2023-09-13,120.98632753897883,121.76545483171917,120.34186404156085,120.59195709228516,279300.0
2023-09-14,121.20756165253754,122.44839859285891,121.20756165253754,121.9289779663086,217900.0
2023-09-15,121.6692627655092,122.35220265507273,120.39957035952995,121.13060760498047,589200.0
2023-09-18,121.54423019858976,121.54423019858976,120.15910842445712,120.85166931152344,175100.0
2023-09-19,120.89976303462733,120.89976303462733,119.33188014617576,120.53424072265625,218600.0
2023-09-20,121.04402623277237,121.2941192581564,119.81281032107518,119.88014221191406,206200.0
2023-09-21,119.5915814853835,119.61081602357613,117.53314098335909,117.56199645996094,335700.0
2023-09-22,117.66782656355645,118.21610273643255,117.45620991110827,118.00448608398438,341200.0
2023-09-25,117.34076318501396,119.3992037620622,116.84058444889169,119.31263732910156,258800.0
2023-09-26,118.82208002776298,119.48578541206082,118.53351789357484,118.88941192626953,547000.0
2023-09-27,119.31264031088143,119.70701074637915,118.18723262251139,118.81245422363281,362400.0
2023-09-28,119.13950746199725,120.85166777851079,118.56237584297187,120.68814849853516,219300.0
2023-09-29,121.66926377216642,121.99630964992629,120.03405639924574,120.27452850341797,330900.0
2023-10-02,119.7839706824147,120.69776913733538,119.26455002499831,120.2841567993164,244100.0
2023-10-03,119.29340648562564,120.53424350988173,117.82171828016256,118.18724060058594,236300.0
2023-10-04,118.8413150678333,119.90901178172992,117.66781004256849,119.49539947509766,208200.0
2023-10-05,119.23569473519102,120.16872773211533,118.11990791789228,119.03369903564453,466700.0
2023-10-06,118.8990326896935,121.86165089685026,118.6874160550928,121.59232330322266,491700.0
2023-10-09,121.02479420203984,122.37143938534139,120.89975135607021,122.10211181640625,275700.0
2023-10-10,122.39067273660791,123.70846243025989,121.68849834421273,121.71735382080078,322000.0
2023-10-11,122.66963195800781,122.83315123204267,121.82317277009818,122.66963195800781,212900.0
2023-10-12,122.37143953710256,122.54457973715071,120.29375713652479,120.6400375366211,189300.0
2023-10-13,121.19793811935457,121.842401584592,120.6208065484162,121.16908264160156,324900.0
2023-10-16,122.50611887985671,122.57345078072507,121.36146922646793,121.88088989257812,275200.0
2023-10-17,121.20755913507936,123.44875352595633,121.20755913507936,122.62153625488281,314400.0
2023-10-18,122.03477780825592,122.80428408635328,121.46725986473184,121.94820404052734,287300.0
2023-10-19,121.27489954662221,122.61192392718466,120.61119415676508,120.93824005126953,443900.0
2023-10-20,121.1306013926972,121.65964292581712,117.28304795510005,117.56199645996094,446500.0
2023-10-23,117.08106243237853,118.46618413837787,116.59049727173269,116.86944580078125,379000.0
2023-10-24,117.47542865086069,119.05292505320921,117.08105821958665,118.63931274414062,312100.0
2023-10-25,118.15676512830933,119.45964393442463,117.63561213324283,118.09886169433594,431300.0
2023-10-26,117.02761412299786,121.0134603739244,117.02761412299786,119.12187194824219,576000.0
2023-10-27,119.16047518784606,119.51755620789429,116.15902425320523,116.94075012207031,364000.0
2023-10-30,117.66457150071054,118.0506115995379,116.63191847013125,117.90584564208984,283100.0
2023-10-31,118.23397067850544,118.60070468662809,117.57770478395322,118.0023422241211,422900.0
2023-11-01,117.84793391063505,119.12186099293919,117.36538566183647,118.63931274414062,360500.0
2023-11-02,119.40175264455395,119.95185741255717,118.68758322153812,119.26663970947266,384300.0
2023-11-03,120.08696643881918,121.57321603943892,120.08696643881918,120.974853515625,278000.0
2023-11-06,120.8976519637754,121.3416028944406,120.39580495443207,120.82044982910156,173500.0
2023-11-07,120.27033050946704,120.62741150810513,119.83603265928002,120.20277404785156,205000.0
2023-11-08,120.5212478211661,121.10995727302534,120.06765865285827,120.75287628173828,175800.0
2023-11-09,121.30298351927328,121.30298351927328,119.73952451177246,120.04835510253906,118600.0
2023-11-10,119.90360110009986,121.399503795025,119.56581875827565,121.33194732666016,195600.0
2023-11-13,121.01345529818798,121.1003178161299,120.02906006116073,120.1834716796875,183100.0
2023-11-14,121.55391115797988,123.39724915782807,120.936249936579,123.3875961303711,267400.0
2023-11-15,123.35863312683614,124.30443092733428,122.90503659818405,123.25247192382812,388600.0
2023-11-16,123.1945687845745,124.13070619763076,122.41283561845891,123.09806060791016,217000.0
2023-11-17,124.07280612990299,124.57466044313415,123.1559673820683,123.46479797363281,162700.0
2023-11-20,123.00155853990697,123.19458227747852,122.01716324915157,122.8760986328125,213900.0
2023-11-21,123.01121297209009,123.8218979529415,122.76028579193338,123.44551086425781,160600.0
2023-11-22,123.96663690748125,124.69045924994556,122.91468530405523,124.08245849609375,174800.0
2023-11-24,124.46849858209583,124.46849858209583,123.62886932734556,124.04385375976562,65900.0
2023-11-27,123.3586396115106,123.82188919108859,122.42249478837549,122.5672607421875,367500.0
2023-11-28,122.56725255670662,122.57690558314336,121.10995481503318,121.22576904296875,218000.0
2023-11-29,121.25473635567784,121.98821183407688,120.55986562488955,120.9941635131836,331800.0
2023-11-30,121.07135636226576,122.69271882208767,120.45369517405763,122.46109771728516,301000.0
2023-12-01,122.00750584736005,124.05350585054758,122.00750584736005,123.62887573242188,218300.0
2023-12-04,123.00153838021136,124.38163394756934,122.46108672979534,123.93768310546875,192000.0
2023-12-05,123.77364210066986,124.1982869716721,121.48636044972991,121.59252166748047,178000.0
2023-12-06,121.9785500946843,122.85679147312398,121.48634880167852,121.9592514038086,179500.0
2023-12-07,121.83379146528237,122.6734281493362,121.59251731777178,122.07506561279297,254000.0
2023-12-08,121.94960678177719,123.04981631507553,121.23543736051924,122.8760986328125,265800.0
2023-12-11,122.81818541054639,123.22352418250709,121.93029101464404,123.11736297607422,338000.0
2023-12-12,123.19457459310557,123.6288724532248,122.2584297728089,123.03050994873047,210300.0
2023-12-13,122.74097856816276,124.4878083169758,122.74097856816276,124.10176086425781,425000.0
2023-12-14,124.57466295525923,125.47219566747552,122.45144615272285,122.95330047607422,412900.0
2023-12-15,122.72167704235878,124.09211233389199,121.57320982713335,121.5828628540039,713000.0
2023-12-18,122.28737240572902,122.76992063905433,121.48634057126459,122.61550903320312,240500.0
2023-12-19,123.25249668445615,123.65784288787358,121.63113396009655,121.82415771484375,659100.0
2023-12-20,121.62146243272905,122.50935684330899,121.08101072784736,121.18717193603516,346400.0
2023-12-21,121.83378846573932,121.83378846573932,120.49230482765589,121.51531219482422,421900.0
2023-12-22,121.98820682835046,122.60586803857178,121.71798096926643,121.86273956298828,312200.0
2023-12-26,121.73728794976175,122.4418117272893,121.20648185963121,121.4381103515625,274700.0
2023-12-27,121.7179801620288,122.05576248364365,120.66602108831127,120.90729522705078,283100.0
2023-12-28,120.61777069727657,121.40914957794178,120.05801292816882,120.83008575439453,343600.0
2023-12-29,120.82043808829643,120.98450273280184,119.24732601714967,119.30523681640625,313500.0
2024-01-02,118.3304763924489,119.76846804211776,118.02164582279315,118.59104919433594,313100.0
2024-01-03,120.78182769015574,122.81818188143322,118.85163470226065,120.9844970703125,531700.0
2024-01-04,120.8107843913824,121.5249537647008,119.79743008568695,119.88429260253906,353300.0
2024-01-05,119.45965904846831,120.02906988595586,118.69723183124766,119.86499786376953,423000.0
2024-01-08,119.73953213187556,120.79149123065565,118.09887089459961,120.00975799560547,352400.0
2024-01-09,119.39208129228734,120.2896212879152,118.67791197888397,120.27996826171875,250300.0
2024-01-10,120.11592604731834,121.04241793133119,119.89395794508872,120.82044982910156,279600.0
2024-01-11,121.00380927134914,122.53831669687723,120.57917177350777,122.41284942626953,323100.0
2024-01-12,123.42620632136199,123.50341581821841,121.52496479911424,122.01716613769531,231700.0
2024-01-16,121.48635575334917,122.39354890156476,121.1292747284493,122.38389587402344,257500.0
2024-01-17,121.54425926799404,122.82783205612957,121.4960014962835,122.26808166503906,336900.0
2024-01-18,122.87609292611428,125.47219764873277,121.90134334518042,124.632568359375,444200.0
2024-01-19,125.18269023740162,126.87160933829033,124.0535142223177,126.2346420288086,418000.0
2024-01-22,126.33112146870488,127.20936278677414,126.00299220465814,126.61100769042969,266200.0
2024-01-23,127.19973175247551,127.24798952655084,125.78103860665047,127.22868347167969,217800.0
2024-01-24,127.50853481683981,127.67259944176305,125.98368069989095,126.2153091430664,294400.0
2024-01-25,127.42170423136226,127.75949393532106,125.82930071545499,126.66893005371094,332300.0
2024-01-26,127.08390439522177,127.96214577452949,126.81367854408161,127.10321044921875,219900.0
2024-01-29,126.47589747660612,127.96213958599905,125.93544580046323,127.6340103149414,187800.0
2024-01-30,127.42168790985616,128.44468782915573,127.0356552058123,127.6340103149414,228400.0
2024-01-31,128.14709571545094,128.53434368250345,125.03951017935186,125.73654174804688,537500.0
2024-02-01,126.29805168978267,126.9273093818835,125.47516261057311,126.3367691040039,298800.0
2024-02-02,125.81402893678585,126.54010247347273,124.5845402785016,125.9495620727539,344800.0
2024-02-05,125.01045863837007,127.25643758338711,123.96491136720756,126.4819564819336,319500.0
2024-02-06,126.31741327577761,127.20806159525097,125.17506481341027,126.94668579101562,369700.0
2024-02-07,127.21772598525038,128.19549937263756,125.24279834775675,127.59528350830078,393000.0
2024-02-08,127.4404150760117,130.5383255987766,127.34359937104924,127.90509796142578,620700.0
2024-02-09,127.89543870730267,134.76894102535888,127.3145739470146,134.52691650390625,650900.0
2024-02-12,134.72051017566284,135.98871608812559,133.12313974347538,133.21995544433594,491300.0
2024-02-13,132.32930021222504,132.9488822581375,130.67384635486445,131.59353637695312,275900.0
2024-02-14,131.91303358615116,133.07476305152232,130.85781026804267,132.79400634765625,335000.0
2024-02-15,132.7939868427026,133.41356890629376,130.27694117211416,130.73193359375,471400.0
2024-02-16,131.05139603090558,133.5974980024858,130.7319219804335,133.1134490966797,453900.0
2024-02-20,132.76494422449613,135.6692378984507,132.58100326162543,135.2335968017578,373000.0
2024-02-21,134.64307352382625,135.64021329621986,134.5559482478703,135.53372192382812,276300.0
2024-02-22,135.98871968077944,137.87650772141765,135.6014864111109,136.95681762695312,295700.0
2024-02-23,137.44086687732337,137.5183164858138,136.1145774154304,136.85032653808594,190300.0
2024-02-26,136.9858566979064,137.52798917361454,136.30819110327124,137.3924560546875,199200.0
2024-02-27,137.39245476737844,137.64415490816972,135.34009190799827,135.8338165283203,244600.0
2024-02-28,135.194869665944,136.7341565973834,134.88508601058652,135.93063354492188,189600.0
2024-02-29,136.1436245676808,137.11172255417472,135.36914322408506,135.9790496826172,250600.0
2024-03-01,135.41754419742617,136.29850209365307,135.1077457669271,135.814453125,151400.0
2024-03-04,136.20167928350625,137.58605202090553,136.07582184483363,137.43116760253906,260300.0
2024-03-05,137.73130314278708,138.64131760349056,137.2182123974122,137.97332763671875,190200.0
2024-03-06,138.37021994084103,139.05757592063267,137.93457885855102,138.50576782226562,184000.0
2024-03-07,139.89016108176327,140.50974321124528,139.25121285610905,140.03536987304688,250100.0
2024-03-08,140.09345993941886,140.44197579004816,138.40896419937695,138.52513122558594,185200.0
2024-03-11,138.23467236717613,138.80586127112414,137.4505155467045,138.186279296875,226700.0
2024-03-12,138.24437886769354,138.29278671562085,136.9664825880185,137.8668212890625,242200.0
2024-03-13,138.43798895737592,138.43798895737592,136.4340193693208,136.6566925048828,336800.0
2024-03-14,136.85031074719467,137.10201086674357,135.88221291077477,136.43402099609375,235200.0
2024-03-15,135.57242007632507,137.86682208776077,135.2820025310812,136.50180053710938,599500.0
2024-03-18,136.43402821831805,136.79223448171572,134.49783244298447,134.8173065185547,299700.0
2024-03-19,134.44946494913435,135.843528536156,134.44946494913435,135.05935668945312,253000.0
2024-03-20,135.17550421499809,135.6014696220955,134.70113096218498,135.50465393066406,220000.0
2024-03-21,135.83379094940284,137.08264530093032,134.8560175541442,136.63731384277344,255800.0
2024-03-22,137.47958214730536,137.9055476013454,136.55021640394727,137.07298278808594,276000.0
2024-03-25,136.69541504364804,139.4544998568,136.66637328957285,138.39927673339844,316300.0
2024-03-26,138.27341558365592,139.70619624368913,138.0701085385698,138.63160705566406,314200.0
2024-03-27,139.08660656444317,140.5193871456138,139.08660656444317,140.04502868652344,218200.0
2024-03-28,140.1999296948087,140.71302034415112,139.06724227584522,139.29959106445312,247800.0
2024-04-01,139.20278768938965,139.20278768938965,137.58606600215256,137.75064086914062,204400.0
2024-04-02,137.31500593788894,137.31500593788894,135.91126690307195,136.14361572265625,202600.0
2024-04-03,136.18232831953642,136.6857433581489,135.40784705367142,136.38563537597656,258700.0
2024-04-04,137.30533962645052,138.19598800416978,136.47277476458206,137.22789001464844,403600.0
2024-04-05,136.86968595043953,138.20565100866335,136.45339617162944,137.20851135253906,288300.0
2024-04-08,137.15041706598697,137.83777302127123,135.91125303201014,136.0274200439453,312500.0
2024-04-09,135.9403078901939,136.59862215595857,134.91412646050384,135.8338165283203,242600.0
2024-04-10,134.54623575653343,135.74668241469655,134.03314507512525,134.9528350830078,200700.0
2024-04-11,134.8173252418579,135.5724405173476,134.03316820746505,134.6914825439453,265300.0
2024-04-12,133.76210007332836,134.51721533826313,131.6226117466809,132.8230438232422,299200.0
2024-04-15,134.18803080372464,135.349745158721,133.43291573437705,133.79110717773438,319600.0
2024-04-16,133.39420463004214,134.94316719612974,132.97792961895718,134.16868591308594,281700.0
2024-04-17,134.44945414271976,135.03030407595662,133.93636338762582,133.98475646972656,565400.0
2024-04-18,133.9750570093757,134.99156267697953,133.81048215225894,134.67208862304688,246600.0
2024-04-19,134.62367866886507,135.4562433737092,134.34293680453402,134.89474487304688,276600.0
2024-04-22,135.09808150736472,136.64702947458002,134.80764914726078,135.84352111816406,298800.0
2024-04-23,135.31104215956182,136.65669759538656,135.06901769432713,135.6789093017578,417200.0
2024-04-24,135.88283187941434,136.8052204354619,135.58184333310518,135.9410858154297,559200.0
2024-04-25,135.7759941871754,137.14502060339382,134.88273282197122,136.10610961914062,694400.0
2024-04-26,137.87323164710924,144.19403432783037,137.77613189586884,139.16458129882812,489500.0
2024-04-29,140.68894676515575,143.71828418532212,140.17435067690909,142.12594604492188,676700.0
2024-04-30,141.50455876401378,141.85409715843193,139.87337465161463,140.18408203125,585100.0
2024-05-01,140.77634869572992,142.9318328954004,140.37826043918207,141.15501403808594,359600.0
2024-05-02,141.5239675984383,142.46577897675033,141.06762539181938,141.6793212890625,356500.0
2024-05-03,142.8347262098354,142.85414912308485,140.63069223929037,142.54344177246094,303300.0
2024-05-06,143.46584874866832,144.74749451317692,142.88329461371845,144.70864868164062,260200.0
2024-05-07,144.00957355262796,146.00970404941293,144.00957355262796,145.36888122558594,392900.0
2024-05-08,145.36889477978409,146.48546798558442,145.13586423611673,146.4077911376953,223500.0
2024-05-09,146.6116820419674,147.3204628465896,144.3105630316223,144.7474822998047,299100.0
2024-05-10,144.62127547863358,144.66982536296524,143.78626784030067,144.17465209960938,186300.0
2024-05-13,144.21345462568132,145.1358429843686,142.59198955369928,143.5726318359375,167500.0
2024-05-14,143.99016035248064,143.9998644024627,143.184279743667,143.60177612304688,137600.0
2024-05-15,143.66003210063693,144.02897856662815,142.5046131956969,142.99978637695312,211100.0
2024-05-16,143.0871700529018,143.60176615776547,142.17448569624776,143.25222778320312,235500.0
2024-05-17,143.5532556287275,143.8639482284669,142.85417876013253,143.37847900390625,169500.0
2024-05-20,143.30077614301211,144.09695263816212,142.7667571298435,143.86392211914062,163400.0
2024-05-21,143.64060931065208,144.35909414501361,142.81530585917272,144.27171325683594,280400.0
2024-05-22,143.76681950721493,144.50472717038883,143.18425068894993,144.46588134765625,283300.0
2024-05-23,144.3396862943476,144.62125187296155,143.27164827475897,143.427001953125,171700.0
2024-05-24,144.16492024192416,144.50475458627656,143.0774740445457,143.7862548828125,162300.0
2024-05-28,143.32992330845792,143.48527700970283,141.58224602315815,142.44638061523438,318400.0
2024-05-29,141.41716447863772,142.4366527072403,140.31029535438608,140.63070678710938,229700.0
2024-05-30,140.91230183602912,142.70852907736696,140.78607509675612,141.8929443359375,328100.0
2024-05-31,141.8443808876884,143.5338189608347,141.6793231449918,143.39788818359375,358900.0
2024-06-03,144.18431769135844,144.18431769135844,142.02883377700786,143.8542022705078,266200.0
2024-06-04,143.35900118172708,144.07750069242377,142.43661297139522,143.88331604003906,287900.0
2024-06-05,143.4270158524189,143.89306211733856,142.8056158940781,143.62120056152344,229200.0
2024-06-06,143.7085664873753,143.7085664873753,141.17441703689698,141.71815490722656,197600.0
2024-06-07,141.53367596430135,142.07739902580767,141.22296860610217,141.320068359375,179100.0
2024-06-10,140.62099421122554,141.57250958640344,139.80540960393014,141.35890197753906,125800.0
2024-06-11,140.6986800796317,141.50456068926422,140.15495697321543,141.2715301513672,147700.0
2024-06-12,141.9900224631697,142.05798044025738,139.88308812796836,141.59193420410156,221300.0
2024-06-13,141.6501881317032,142.27158805169188,140.805476550794,141.59193420410156,232400.0
2024-06-14,140.8734504649213,141.1550309006414,139.50442375003365,140.5433349609375,141500.0
2024-06-17,140.6598313540665,142.41722736375868,140.3685617068692,142.07740783691406,303800.0
2024-06-18,142.22303735719075,143.39787921333664,142.2133333077604,142.42694091796875,219900.0
2024-06-20,142.3977825431952,143.24249393292303,141.43654850929366,141.57247924804688,199900.0
2024-06-21,141.6307756362361,142.8638715174382,141.0870525181657,142.58230590820312,444100.0
2024-06-24,142.9415237902204,143.92216604419272,142.4075048141597,142.4560546875,182900.0
2024-06-25,142.52401968431698,142.53373854866894,140.30057760299235,140.65011596679688,194500.0
2024-06-26,140.05785425717647,140.5821544372045,138.80535032884424,139.53355407714844,192400.0
2024-06-27,139.6888885498047,139.69860741462887,138.135396158235,139.6888885498047,377300.0
2024-06-28,139.60152272147332,140.1258377569006,136.01875763564942,136.71783447265625,435100.0
2024-07-01,137.27127014880173,137.36835509564582,134.36815911737452,134.5137939453125,306400.0
2024-07-02,134.45551784033776,136.41681715340104,133.7564411508368,136.31971740722656,259400.0
2024-07-03,136.78579030057608,137.2906675416146,136.4848018027494,137.11590576171875,143300.0
2024-07-05,136.89261727770193,137.3295366167457,135.66922534996536,136.8052215576172,207000.0
2024-07-08,137.53340696834337,138.35871046567937,137.38777214662196,137.39747619628906,249300.0
2024-07-09,136.76634544453174,137.16443363310623,135.68860352872045,135.9701690673828,238400.0
2024-07-10,136.65956823532298,137.51399869592782,136.48480644947725,137.18386840820312,142000.0
2024-07-11,137.09648258623827,139.13545890652216,136.65956332198957,137.9606170654297,244500.0
2024-07-12,139.24228498373407,141.26183871311542,139.24228498373407,140.3879852294922,263900.0
2024-07-15,140.55302268784044,141.45600300897715,138.98010738595784,139.2616729736328,319900.0
2024-07-16,139.66946784903956,141.07732529464843,139.66946784903956,140.35882568359375,178800.0
2024-07-17,140.145223926781,141.53367333298914,140.145223926781,140.65011596679688,242300.0
2024-07-18,140.40738917518402,142.97066571318356,140.3976851256369,142.0288543701172,434200.0
2024-07-19,142.32983440463798,142.32983440463798,140.45593069491323,141.69873046875,251200.0
2024-07-22,141.74727638845377,143.27164169328665,141.02877677052334,142.9123992919922,235700.0
2024-07-23,143.572641002004,144.19404091845544,141.43657971516106,141.7958221435547,234500.0
2024-07-24,141.82498394212112,142.36870709384863,139.71803450615988,139.95106506347656,250600.0
2024-07-25,139.11343221874438,140.30168787194964,137.54532532307127,137.8083038330078,558100.0
2024-07-26,139.40562054037346,147.35327797180082,138.64591810105864,142.84376525878906,562800.0
2024-07-29,142.76584597383152,144.4897929937424,141.39253199421196,143.9541015625,390900.0
2024-07-30,143.54504923709058,144.05150768530154,141.62630915801532,141.95745849609375,411000.0
2024-07-31,142.68793548619507,144.97679227316166,141.62630185383244,143.1554412841797,280600.0
2024-08-01,143.05804117385702,145.64881403519908,141.64575972559882,143.20413208007812,335300.0
2024-08-02,142.7658734897668,143.17494297199187,140.00951055934578,141.89903259277344,213500.0
2024-08-05,139.69782130454826,139.69782130454826,135.85060666321178,137.01937866210938,448500.0
2024-08-06,137.65246713764915,142.28860227483594,137.43819054803106,141.15878295898438,476000.0
2024-08-07,142.21065060341132,143.4281242007132,139.73675079285874,139.86337280273438,353600.0
2024-08-08,140.7010014885436,142.35676268215138,140.7010014885436,141.77236938476562,268600.0
2024-08-09,141.62630065454624,141.62630065454624,139.73677887394297,140.20428466796875,263200.0
2024-08-12,140.22376060481798,140.42828787630694,139.05498875394557,139.5614471435547,221100.0
2024-08-13,139.77571975776996,141.5191504756012,139.37639966606926,140.61334228515625,212000.0
2024-08-14,140.37960449405662,141.04190311093822,139.75625849980418,140.15557861328125,115700.0
2024-08-15,141.22695417806543,143.5060614579835,141.22695417806543,143.1846466064453,277500.0
2024-08-16,142.30807861002003,143.01907915033655,141.8210890883735,142.90220642089844,250600.0
2024-08-19,142.51261052991734,143.88590958757007,142.12301002349056,143.14569091796875,191200.0
2024-08-20,143.15544136166255,144.45083532458932,143.15544136166255,144.25604248046875,387200.0
2024-08-21,144.31447092085256,145.6780504782827,143.6229541329459,145.4442901611328,267300.0
2024-08-22,145.67802291658182,146.48641227924912,144.80143303942248,145.1131134033203,200400.0
2024-08-23,145.7657034384913,146.6130604286141,145.5514268655365,146.52540588378906,221400.0
2024-08-26,146.75915922191393,148.6973829226023,146.23321706296485,146.25270080566406,235500.0
2024-08-27,146.10657244845748,147.5967590072151,145.9409978154554,147.26560974121094,208300.0
2024-08-28,147.00265865265132,148.01560524076524,147.00265865265132,147.59678649902344,249000.0
2024-08-29,148.58049863148904,148.9311316640923,147.27537034525355,148.31752014160156,187100.0
2024-08-30,148.23959762370004,149.4473369078232,147.69417177336692,149.20384216308594,178500.0
2024-09-03,148.15196236389943,148.4149408837286,145.8338873365541,146.1358184814453,362400.0
2024-09-04,145.70725993860023,146.97342071092024,145.70725993860023,146.80784606933594,175800.0
2024-09-05,147.1487592794206,147.81105791158635,146.04815817755215,146.79812622070312,200600.0
2024-09-06,146.46697415286368,149.13566723576417,146.46697415286368,148.41493225097656,319100.0
2024-09-09,148.599998351621,149.07723859888472,147.49939721337483,147.95716857910156,241500.0
2024-09-10,147.9181836882304,148.8142425709734,147.4993798583381,147.5675506591797,158100.0
2024-09-11,146.86629136229539,146.95396076989897,144.76250795288001,146.9149932861328,178000.0
2024-09-12,146.96369468322857,148.05454643692235,146.06763576244578,148.005859375,200400.0
2024-09-13,148.22986559888577,149.02852064652984,147.9474033678148,148.31752014160156,138600.0
2024-09-16,149.0577507849576,149.18437282019818,148.11300475699895,149.00906372070312,182900.0
2024-09-17,149.9927649627968,151.5219191158579,147.9181849513857,149.04800415039062,259900.0
2024-09-18,149.75902346233676,151.44401803275537,148.73635728036453,149.0869903564453,214200.0
2024-09-19,150.98622094035395,154.67759462046783,150.98622094035395,152.81729125976562,412400.0
2024-09-20,152.24267408275566,152.24267408275566,150.46029050724783,151.85308837890625,663300.0
2024-09-23,152.10629117339244,152.8270409482074,150.7135084054571,151.90176391601562,315800.0
2024-09-24,152.1160493204721,152.99263943106746,151.96995839957702,152.55435180664062,246200.0
2024-09-25,153.20692666005044,153.76208705973818,151.8141287166015,153.05108642578125,284100.0
2024-09-26,153.8302663844023,154.92111825576467,153.59650604264948,154.25881958007812,371600.0
2024-09-27,154.55097113044005,157.3463007953961,154.14190175887705,155.7294921875,354300.0
2024-09-30,155.14510798319304,156.24570900619995,154.7944749495995,156.02169799804688,289800.0
2024-10-01,156.36259442762125,156.36259442762125,154.9113751149142,155.80743408203125,192200.0
2024-10-02,155.70028846125726,155.94378321896212,153.84973424739667,154.61917114257812,186900.0
2024-10-03,153.87893746061624,156.28466662165906,152.56405995222016,154.80421447753906,367000.0
2024-10-04,155.77820432469008,157.26839101232096,155.18407653760102,156.40155029296875,350500.0
2024-10-07,155.2425276346262,155.48602240881075,153.89843172537022,154.5607452392578,223300.0
2024-10-08,154.16140851662,154.88215839036292,153.0121203289736,154.541259765625,205900.0
2024-10-09,154.2295709430776,155.88533216711275,154.00554508664416,155.54443359375,152600.0
2024-10-10,153.93739633476548,155.23279029262568,153.93739633476548,155.0769500732422,168500.0
2024-10-11,156.75218568056042,157.70668095780067,156.17754162622376,157.3463134765625,194400.0
2024-10-14,160.6968029731812,163.394714143239,159.20661626974442,162.8395538330078,469700.0
2024-10-15,162.9661894401701,165.24529695748606,162.15778500726063,164.29078674316406,397300.0
2024-10-16,164.31027038182938,164.79725992941144,161.60260968621262,161.719482421875,330000.0
2024-10-17,162.63502251682706,163.94016577814568,162.18700046287847,163.52134704589844,238200.0
2024-10-18,164.69985199950776,164.69985199950776,163.41419260808226,164.24208068847656,171500.0
2024-10-21,164.0862524476999,164.1057361900711,161.97271968352462,162.00193786621094,217900.0
2024-10-22,161.40781358966652,162.0408940440798,160.52148906409494,161.49546813964844,228500.0
2024-10-23,162.17724687078498,163.6089972685699,161.83636311905678,163.28758239746094,318100.0
2024-10-24,164.38138841449273,164.3911490539813,162.26215240803288,162.65280151367188,547300.0
2024-10-25,164.9673717253666,165.8756180331623,160.7582255195228,164.95761108398438,518900.0
2024-10-28,165.92439581087592,167.3990718969887,164.81107199246878,165.14312744140625,350000.0
2024-10-29,165.0747671080742,165.52400985615543,163.71729312603756,164.7524871826172,338100.0
2024-10-30,164.41068693257148,166.2173887714383,164.18605810635694,165.07476806640625,290300.0
2024-10-31,165.1333689439496,166.29552588082868,163.9321545452615,163.98098754882812,329900.0
2024-11-01,164.16651779672716,166.98889209183037,163.69773891946087,165.44586181640625,316300.0
2024-11-04,165.6607063917498,166.57871301776453,164.24462409746818,164.32275390625,191800.0
2024-11-05,163.81495853194275,166.37364684373878,163.81495853194275,166.32481384277344,206200.0
2024-11-06,171.05154898002016,171.05154898002016,168.1119872286225,169.10812377929688,264100.0
2024-11-07,170.12378096512896,171.35430696476374,169.47922114643825,170.62185668945312,412300.0
2024-11-08,170.61209897781401,173.6786238548333,170.40702122427004,171.6472930908203,309200.0
2024-11-11,172.1942029189047,173.8641813863164,171.7840176058394,172.02816772460938,189100.0
2024-11-12,172.51645146428592,173.09265701480297,170.85623379576612,171.58868408203125,179800.0
2024-11-13,171.3933563232422,172.26253001280048,170.95388915917127,171.3933563232422,168400.0
2024-11-14,171.05155682058597,171.67658049046,169.8405818424337,170.02613830566406,198200.0
2024-11-15,168.92257425336157,169.69408202115162,162.28168847937133,162.59420776367188,620500.0
2024-11-18,162.4965371683572,163.89308346527008,160.4847427631967,162.78952026367188,384400.0
2024-11-19,162.5258191611862,163.7465695288508,162.31096590433822,162.9945831298828,287600.0
2024-11-20,163.09226951003035,164.9868767017905,161.773852987427,164.7817840576172,221800.0
2024-11-21,164.74273502870884,166.24669318990152,163.81496756616045,165.90489196777344,205100.0
2024-11-22,166.1978542572136,168.04364337816776,166.1978542572136,167.49673461914062,241600.0
2024-11-25,168.0241100492806,169.94801412387145,167.7213662946961,168.4635772705078,270100.0
2024-11-26,168.81514749207574,168.81514749207574,167.1549297751935,168.0143280029297,140300.0
2024-11-27,168.62956976438952,169.81126266839826,167.5064853950592,167.71156311035156,167200.0
2024-11-29,168.55144377295503,169.43039299219728,168.0631436183998,168.9127960205078,117300.0
2024-12-02,168.93233680546206,169.05929962886407,166.84241249869427,168.7174835205078,170900.0
2024-12-03,169.39133917889114,169.39133917889114,167.0865616010066,168.36590576171875,160100.0
2024-12-04,167.86783536473908,168.84443572520686,167.02795845866723,168.55145263671875,173400.0
2024-12-05,167.98505442378325,168.40500040714633,166.5396897893013,167.0963592529297,245000.0
2024-12-06,167.5846542721195,168.6100728910936,166.85220388614303,167.14517211914062,209200.0
2024-12-09,167.5455809247015,169.41089147314173,166.24670045963933,166.79359436035156,301700.0
2024-12-10,166.72522539571543,167.36000970992765,164.25442751782737,166.91078186035156,287000.0
2024-12-11,167.85808411107303,170.02613822467129,167.73112128855698,168.27801513671875,418600.0
2024-12-12,167.65298456324717,168.5612306607672,166.78381082569527,167.62368774414062,178300.0
2024-12-13,166.9107848371899,166.99867530040407,165.8462939336225,166.21739196777344,153200.0
2024-12-16,166.15881199108833,166.93031984565312,163.66847768302608,163.70755004882812,236100.0
2024-12-17,162.9946187426932,163.00439428488264,159.02962306648192,159.27377319335938,511900.0
2024-12-18,159.8596998530706,160.57261387443967,154.21495151029833,154.5079345703125,468600.0
2024-12-19,154.80093483209816,157.78934478191135,154.5274878931726,155.1525115966797,404700.0
2024-12-20,155.00602554523715,156.04121964416362,153.78527497542004,154.47865295410156,730200.0
2024-12-23,153.49228296319632,155.1817974814259,153.28720522432621,154.81069946289062,194900.0
2024-12-24,155.0646226890186,155.68964639880573,154.2247456819539,155.6212921142578,100500.0
2024-12-26,154.7130496409685,155.89474280440862,154.7130496409685,155.13299560546875,164500.0
2024-12-27,154.1270910423129,155.84590247939389,153.92199838988887,154.44935607910156,145000.0
2024-12-30,153.32626257404377,153.80480213396478,151.3730617769222,153.0625762939453,221700.0
2024-12-31,153.59971586271843,154.54701948074276,152.52544941905987,153.42393493652344,317100.0
2025-01-02,153.96104492700826,154.4102876614351,149.8593262852289,150.55271911621094,239400.0
2025-01-03,150.43550041969115,152.07619663730705,149.29287988147502,151.86134338378906,250700.0
2025-01-06,150.39645072499704,151.0214743397327,147.89635626605445,149.3417205810547,369000.0
2025-01-07,152.27153842764793,152.40826189282907,149.0292327240345,149.8397979736328,361200.0
2025-01-08,149.3124422881475,150.6503801368408,148.5311589473614,150.54295349121094,228600.0
2025-01-10,149.14641510020002,150.6894455288929,149.00969163951783,149.8593292236328,350800.0
2025-01-13,149.351489060231,151.08007590647148,149.351489060231,150.28903198242188,349300.0
2025-01-14,151.18750459843608,151.81252825447513,149.8886242863141,150.9921875,196900.0
2025-01-15,152.46686153360938,153.2481448947014,150.56249358589434,151.9199676513672,206100.0
2025-01-16,152.24222469159,153.4922719205697,151.67579471256195,152.75006103515625,346300.0
2025-01-17,153.29695885699005,154.2540230320317,152.03713605455528,152.4375457763672,231900.0
2025-01-21,153.0528143054371,156.50997312910235,153.0528143054371,156.0900421142578,270900.0
2025-01-22,155.61149546068765,156.98850552412839,154.63489511528093,155.3478240966797,280000.0
2025-01-23,154.7521339046624,156.07053574185548,154.03920475458278,155.88497924804688,149800.0
2025-01-24,155.9142573921176,156.7150769217103,153.54112542846482,154.59585571289062,329600.0
2025-01-27,154.54702831099388,155.20134885433862,152.98446155852756,154.7521209716797,317000.0
2025-01-28,153.88292658532947,156.59787440646915,153.88292658532947,154.71302795410156,204300.0
2025-01-29,155.0646061385479,155.10367849846844,152.95514575501196,153.43368530273438,265800.0
2025-01-30,154.1270963205914,154.96695843542625,152.9161063496536,154.42984008789062,274200.0
2025-01-31,154.20518277543422,155.66032259995123,153.09185901964062,153.4727325439453,834100.0
2025-02-03,150.96288932286944,153.0821103704106,150.53318276913035,152.3301239013672,364600.0
2025-02-04,152.43756037769683,154.75211357303183,152.43756037769683,154.0098876953125,302400.0
2025-02-05,155.01866189479728,156.3702319730873,154.52896432375118,155.05784606933594,262600.0
2025-02-06,156.54649741836073,156.54649741836073,152.16860045521503,153.22634887695312,446600.0
2025-02-07,154.37226642227148,154.64649588233073,139.11328743464438,140.22979736328125,1221500.0
2025-02-10,141.2875312819042,141.62053697254157,137.99676315893876,140.32772827148438,621900.0
2025-02-11,139.33854663703144,140.1220657147679,137.3699528993658,139.35812377929688,377300.0
2025-02-12,138.06531924654766,140.53339891858562,137.0467400415367,138.7802734375,423500.0
2025-02-13,139.80865498326042,140.8174307728779,138.54524183950096,139.8282470703125,665900.0
2025-02-14,140.72929960574803,142.31591505799216,139.7792850599418,141.80662536621094,512800.0
2025-02-18,141.80661410840983,144.2551019301506,140.93495304164546,143.87313842773438,489600.0
2025-02-19,143.12878909814165,144.45097836650277,142.60971092774975,144.01023864746094,331000.0
2025-02-20,143.94171731007287,144.38244217212826,142.91334933568692,143.65768432617188,283100.0
2025-02-21,144.0004768600077,144.3530597341893,142.20818182828341,143.32469177246094,451900.0
2025-02-24,143.16800404406814,144.2551334724038,141.38551229116783,142.60975646972656,353300.0
2025-02-25,142.8741632870377,145.27367831527678,142.7174564829414,144.6664581298828,336700.0
2025-02-26,143.6283035869074,146.10617230747383,143.59892292574537,143.61851501464844,735600.0
2025-02-27,143.21696167310282,144.1473841616562,142.36489259702773,142.62933349609375,262800.0
2025-02-28,143.14838730085012,143.9221028321513,141.64991403633834,143.72622680664062,348700.0
2025-03-03,143.94167865165974,145.7731424470105,142.6880542967998,143.5695037841797,394100.0
2025-03-04,142.54114014221193,144.9014856526628,142.1493881243132,142.9329071044922,490100.0
2025-03-05,143.04064002480618,145.78294896164962,143.04064002480618,145.3813934326172,445100.0
2025-03-06,144.5195432997619,148.37836251128888,144.02984573371802,148.0355682373047,471700.0
2025-03-07,147.40874233764586,150.20002418408012,146.10614513893535,149.63197326660156,480200.0
2025-03-10,148.93663737676746,150.8268629666157,147.1443423416951,147.46754455566406,391100.0
2025-03-11,147.24225796213827,147.45772608292995,144.23552273099082,144.84274291992188,304000.0
2025-03-12,145.18554224213253,145.18554224213253,142.56075547219578,143.0210723876953,299700.0
2025-03-13,143.39323247450463,144.16694798641166,140.79782663230102,141.7772216796875,238400.0
2025-03-14,142.23756435683154,143.86336401714982,141.561779260411,143.6381072998047,223600.0
2025-03-17,143.49116498279625,144.9504690034165,142.85456417100727,144.79376220703125,225200.0
2025-03-18,144.35304428256728,144.49015899982857,142.7762175618708,143.28550720214844,219900.0
2025-03-19,143.32466483055046,144.42159742424096,142.47259593827573,143.95147705078125,279600.0
2025-03-20,143.1190209381293,144.38243413158088,140.76846356409283,142.2081756591797,332800.0
2025-03-21,141.03288741960213,142.46281077035695,139.4266801328764,141.83599853515625,601900.0
2025-03-24,142.7468386396778,145.1267616063011,141.92415032610805,144.94068908691406,463800.0
2025-03-25,145.43038233248038,146.15512513486658,142.9231183481365,144.1767578125,325200.0
2025-03-26,144.02005068183723,145.63604659931275,143.28550436582418,145.49893188476562,630400.0
2025-03-27,145.22471455574868,146.80154137661276,144.0004705937233,146.27267456054688,312700.0
2025-03-28,146.21390008176047,146.90927723620769,142.75663628635246,143.90252685546875,239800.0
2025-03-31,143.5597480313838,146.01802456611082,143.08964252694352,145.32266235351562,372500.0
2025-04-01,145.8123486528671,146.93864705079392,144.34325598893645,146.02781677246094,240000.0
2025-04-02,144.95049129591143,148.01600308998087,144.95049129591143,147.42835998535156,247600.0
2025-04-03,143.73601082079833,146.95822887417515,143.4422042640377,145.60665893554688,352900.0
2025-04-04,142.22775504246812,144.91130294785953,137.1544807452422,137.29159545898438,531600.0
2025-04-07,133.5307294902565,139.19163219073434,128.15385974857273,131.87554931640625,629900.0
2025-04-08,134.5493112573588,136.43953673434598,128.57499483049722,130.9059600830078,473800.0
2025-04-09,130.43582718258966,141.44423305934052,128.6141667138947,140.7880401611328,491800.0
2025-04-10,137.11532993446937,140.4158870228316,134.7354067381973,137.8596649169922,309000.0
2025-04-11,137.96737957378522,141.7282680233526,136.86067330008663,141.140625,203000.0
2025-04-14,142.79581425798335,143.38344237476502,140.82722046414764,142.7860107421875,249300.0
2025-04-15,143.08963340422312,143.5205547049289,140.80764097500608,140.97413635253906,250700.0
2025-04-16,141.09164958012386,142.8153944455794,139.63236050898016,142.0122833251953,307700.0
2025-04-17,142.40405194984112,142.75663480933545,137.8107011490633,140.8664093017578,390600.0
2025-04-21,140.34731652488202,141.08186282740823,138.19265035968172,139.64215087890625,291600.0
2025-04-22,141.52259151328374,143.79479531157602,140.631338388382,143.0112762451172,217800.0
2025-04-23,144.823151790697,146.24328667195422,144.1865509396658,144.99945068359375,537000.0
2025-04-24,144.88192409202932,148.86806971088194,142.4628317080614,148.33920288085938,424500.0
2025-04-25,147.74175781185858,149.84745131334506,144.52934305768525,145.98863220214844,220500.0
2025-04-28,146.71339348881767,147.91804531450325,145.22470870652703,146.61544799804688,235200.0
2025-04-29,146.67421273095528,148.84847116613122,145.939666366217,147.20309448242188,359900.0
2025-04-30,145.99844818091182,146.8994899625974,144.17677252930838,146.8603057861328,556200.0
2025-05-01,145.82883124627438,147.8721067076984,144.36514960993844,145.66183471679688,445300.0
2025-05-02,150.2886872456017,150.29850528114721,145.18049076089244,149.316162109375,431600.0
2025-05-05,148.7562082163406,150.51461075676426,148.21593150363898,148.80532836914062,267600.0
2025-05-06,147.59703523807684,149.35542260665764,146.78168875218103,148.2552032470703,312000.0
2025-05-07,149.19827245283236,150.44583737765655,147.9605105733144,148.7169189453125,318400.0
2025-05-08,149.10985945249004,151.84078718705774,148.5695827139862,150.6521453857422,302500.0
2025-05-09,151.1924328459138,151.5755460622504,150.23955882257493,150.61285400390625,231600.0
2025-05-12,153.0392239180569,153.82510139061208,150.98613045039815,152.7740020751953,352500.0
2025-05-13,153.55005471787953,153.55005471787953,150.49496693494288,150.9272003173828,339400.0
2025-05-14,150.90754450151144,150.90754450151144,148.3043412429943,149.7876739501953,350100.0
2025-05-15,149.65998239804614,152.7347062134107,149.65998239804614,152.2140655517578,278100.0
2025-05-16,152.4399964689241,154.3752135929202,151.86041763202704,154.23768615722656,278600.0
2025-05-19,153.59915663256362,155.5441916331963,153.5500364832347,155.28878784179688,185400.0
2025-05-20,157.43029958325823,157.43029958325823,155.12180229520027,155.73085021972656,388100.0
2025-05-21,154.09034056579173,154.8663850260189,153.07852836340334,153.6875762939453,319800.0
2025-05-22,153.5991755437167,154.4832783830283,152.81329802579143,153.88404846191406,278900.0
2025-05-23,152.3810559407016,153.4223372220158,151.53624028030902,153.18658447265625,260500.0
2025-05-27,154.25733338201647,155.642440728808,153.9233403306864,155.3673858642578,352800.0
2025-05-28,155.36737887816963,156.03536495079385,154.48326114812755,154.62078857421875,364400.0
2025-05-29,155.04320652313712,155.8683710937722,154.05104543149486,155.5343780517578,232100.0
2025-05-30,155.44597065814978,155.9764293133438,153.77597547059216,155.60313415527344,335100.0
2025-06-02,154.75833131600515,156.2613301068848,152.51859016122646,154.13946533203125,349600.0
2025-06-03,153.4223415376803,154.66010346409962,153.24552697068694,153.5009307861328,397800.0
2025-06-04,153.72687442684654,153.7563435201819,147.63633532186296,147.7542266845703,831900.0
2025-06-05,148.90357998413,150.632498572694,146.41825295522108,149.79751586914062,482400.0
2025-06-06,151.6443086942385,151.75236704132885,149.52245886221365,150.60302734375,264700.0
2025-06-09,150.01363456854594,150.4753220758684,148.68746527135272,148.92323303222656,388400.0
2025-06-10,149.47332984142486,150.2984944487939,148.19628081228734,149.8367919921875,323500.0
2025-06-11,150.29851181607012,150.87809071516745,148.9232373115395,149.23757934570312,380800.0
2025-06-12,148.7365731786107,151.88988615274167,148.7365731786107,151.62466430664062,337200.0
2025-06-13,150.2985051515068,151.00579343372206,148.06858195648448,148.49099731445312,361200.0
2025-06-16,148.5695758002576,150.20025395390124,148.4516844355203,149.01162719726562,346200.0
2025-06-17,147.9998296074305,148.58922653181065,146.49684571567806,146.81118774414062,379700.0
2025-06-18,146.4869866848808,148.0685595503163,146.4869866848808,147.05674743652344,383200.0
2025-06-20,147.6363309167007,148.10786637472864,146.35929693863002,147.6461639404297,570500.0
2025-06-23,146.85047583401547,151.2218996436103,146.85047583401547,151.0745391845703,356500.0
2025-06-24,151.84077408220156,151.84077408220156,150.47530283808342,151.1531219482422,246600.0
2025-06-25,151.14329517579995,151.80146318967252,150.0725448990236,151.21205139160156,264700.0
2025-06-26,151.80148526751537,152.83294856947208,150.4163778331554,151.7523651123047,658200.0
2025-06-27,151.9292038692901,153.35359852041546,151.50678849615022,153.0687255859375,643100.0
2025-06-30,153.27500695161754,153.73670945071478,151.88008141858438,153.66793823242188,315500.0
2025-07-01,153.66793021902077,156.9784367941011,153.20624273336693,156.20237731933594,338300.0
2025-07-02,156.2122087454969,157.69554147577566,155.84873159459067,157.4892578125,293500.0
2025-07-03,157.76433002823686,158.51090549299013,156.99810350169926,158.19654846191406,235100.0
2025-07-07,158.10811741535406,159.5030428051159,157.7151861749073,158.11795043945312,313900.0
2025-07-08,158.05901225349746,159.7093565965001,157.02756390215916,157.22402954101562,342700.0
2025-07-09,157.10613360189868,157.18472285303153,155.30845881868973,156.90966796875,252800.0
2025-07-10,156.37919368056006,157.52853325880866,155.5343780517578,155.5343780517578,361600.0
2025-07-11,155.7603190354981,155.7603190354981,153.86440405350666,155.11196899414062,292000.0
2025-07-14,154.36538707594116,156.13360757296107,153.92333569902758,154.77796936035156,276600.0
2025-07-15,154.95480896302266,155.21021277775083,151.34961151557988,151.43801879882812,254200.0
2025-07-16,151.20223382561701,152.86239590560155,150.8387717096552,152.24351501464844,261900.0
2025-07-17,152.00776275022704,153.64827377805926,151.78181306560424,153.2749786376953,397700.0
2025-07-18,154.08053795548372,154.43418210944483,152.18460777221878,153.61883544921875,243100.0
2025-07-21,153.65810471165034,153.9036904847458,152.49894705753542,152.70523071289062,205900.0
2025-07-22,153.35357548550758,156.54619042612177,152.48910879729814,156.3595428466797,449900.0
2025-07-23,157.24366585052525,158.99223535423732,156.3300789809644,158.8055877685547,450500.0
2025-07-24,158.559320268112,161.82979531304568,157.40675735764995,159.406494140625,431900.0
2025-07-25,159.63305506440543,160.65753702914088,158.3819926877325,158.5888671875,296300.0
2025-07-28,158.79573614749467,159.56410142477418,155.80108366056007,156.33302307128906,308500.0
2025-07-29,156.6778135699502,157.21961346905596,154.8751057408573,156.4512481689453,388200.0
2025-07-30,156.43152305866946,156.55957390550213,152.60938790987095,154.4514923095703,580700.0
2025-07-31,153.456563501654,155.0031544025075,152.86550639902828,154.79627990722656,679700.0
2025-08-01,154.6288158726098,155.76165777291718,138.9856590147076,139.24179077148438,1012300.0
2025-08-04,140.98539693056597,140.98539693056597,135.03548860220042,137.05491638183594,839000.0
2025-08-05,137.2617519084508,138.9659599251385,135.63636753338238,138.12863159179688,540800.0
2025-08-06,138.21729882019278,138.6605841437307,135.49846914211423,136.47369384765625,515300.0
2025-08-07,137.71492680516198,139.37972335336121,136.8382014966747,138.39463806152344,564000.0
2025-08-08,138.59163887027924,139.93135534040795,138.48327889728324,138.65074157714844,428700.0
2025-08-11,139.222090228796,139.5077583171329,137.12385398637957,137.7838592529297,349500.0
2025-08-12,138.12864188918144,138.9856611656125,137.15340217271373,137.39967346191406,286100.0
2025-08-13,137.60654859738395,139.33044762978915,137.17310872138614,139.32058715820312,729900.0
2025-08-14,138.09910131689176,138.09910131689176,134.40503169053025,136.2766876220703,875800.0
2025-08-15,136.29638497225332,136.8775816161289,135.81368782683418,136.65101623535156,770500.0
2025-08-18,136.81845905226254,137.48832468809,135.30143472160202,135.8333740234375,529500.0
2025-08-19,136.20773671589527,138.4241784468644,136.20773671589527,137.50804138183594,333100.0
2025-08-20,137.82329326337526,139.14330400896117,137.18297877487387,139.0743408203125,519200.0
2025-08-21,138.53252821704885,139.78357552390523,138.1483456132288,138.54237365722656,270400.0
2025-08-22,139.15312448451428,141.19225798353852,139.08417633944555,139.32058715820312,356500.0
2025-08-25,138.86747422955796,139.4979282125284,136.88745821223102,137.47850036621094,245800.0
2025-08-26,136.9957973337368,138.06953652648775,135.95159446141804,137.62625122070312,442900.0
2025-08-27,137.01548945470773,138.47342629437426,136.95638675089546,137.3602752685547,729100.0
2025-08-28,138.07937388667187,138.07937388667187,135.35068400580442,136.81846618652344,320800.0
2025-08-29,137.0943260289229,137.7838827660371,136.2865638600776,137.19284057617188,370700.0
2025-09-02,135.37040364310914,136.46384879424832,134.13904716800675,134.37547302246094,310600.0
2025-09-03,134.0503903916783,134.1488898889654,132.43485133034417,133.20321655273438,382300.0
2025-09-04,134.3163671782823,136.41458834161003,133.0258929963137,136.3948974609375,401800.0
2025-09-05,136.94654859153968,138.7197049562119,135.5772807659998,136.55250549316406,440800.0
2025-09-08,136.52297282060496,137.91194674892364,135.62654155924673,136.2373046875,616100.0
2025-09-09,136.1978803964661,137.39968559639797,133.08502244977814,135.0059356689453,637100.0
2025-09-10,134.09965957050477,135.40982475360394,132.83875165602893,134.21786499023438,685100.0
2025-09-11,134.71040519706986,136.2175843964125,133.84352538471833,135.05519104003906,477500.0
2025-09-12,134.58234162242087,135.00593609481896,133.20322828923454,133.21307373046875,261300.0
2025-09-15,133.94202034472283,134.13903435567997,132.62200993698394,132.83872985839844,298000.0
2025-09-16,132.77962562814162,133.40023410540573,132.0999294759084,133.19337463378906,474800.0
2025-09-17,133.40021279614652,135.0256121123868,132.18856241946168,132.64169311523438,377400.0
2025-09-18,132.88798558145595,133.48888814617573,132.07037810452255,132.49395751953125,254800.0
2025-09-19,132.65158018177598,133.0850200863436,131.35126046807318,132.4348602294922,877200.0
2025-09-22,132.11960688188879,132.92738386712793,130.69123651388878,130.74049377441406,402100.0
2025-09-23,131.0261738005905,131.95215627068484,130.00169183165633,130.0509490966797,319700.0
2025-09-24,130.03125417731107,131.3217134615017,129.38109429893456,129.53871154785156,353300.0
2025-09-25,129.53870141670419,130.54349251095573,128.32705085173455,128.8688507080078,388700.0
2025-09-26,129.37123644965243,130.4548211118124,129.00675974879576,130.31690979003906,274400.0
2025-09-29,130.42527680922657,130.7010994676822,129.4007947965638,130.29722595214844,540600.0
2025-09-30,129.74557555443596,131.76498814664785,129.74557555443596,131.66648864746094,310400.0
2025-10-01,131.3413962300209,132.3560326654084,130.33660523425266,132.13931274414062,310100.0
2025-10-02,131.66650104495739,132.38560908468045,130.9769443608936,131.1936492919922,398500.0
2025-10-03,130.49424878110028,131.58769404764834,130.45483695226136,131.23306274414062,402000.0
2025-10-06,130.90797079558112,131.21334480064905,129.45004891757588,129.9130401611328,447100.0
2025-10-07,130.13960666531722,130.5336347337186,127.8739076939909,128.64227294921875,438800.0
2025-10-08,129.22345454639873,130.04107697266164,128.31717806976172,129.6470489501953,361300.0
2025-10-09,129.73571125193516,130.8587077217144,128.258083526899,128.66197204589844,554200.0
2025-10-10,128.98704858156654,130.04108184834632,127.95270619480443,128.97718811035156,426000.0
2025-10-13,129.03630601031335,130.37602238234368,128.2186835523413,128.2777862548828,311400.0
2025-10-14,128.10047027161394,129.10526136456485,127.11538509101302,127.86405944824219,337400.0
2025-10-15,127.86406447402499,128.44526114593418,125.95299674355027,126.18942260742188,438300.0
2025-10-16,126.52434949163495,127.56853743164201,125.94314529715282,127.23361206054688,352700.0
2025-10-17,127.23361106421747,128.15959357922404,126.92823704995098,127.41091918945312,339700.0
2025-10-20,127.67688307805489,128.1497197271898,126.11060134384137,128.06106567382812,240500.0
2025-10-21,128.6620011713056,129.80470381149843,127.19421855427119,128.6226043701172,311600.0
2025-10-22,128.70137488096933,130.13960588126338,128.04136960320932,128.12017822265625,357500.0
2025-10-23,128.2783732274755,130.04820070636612,128.1992726855578,129.29676818847656,378600.0
2025-10-24,129.27699821696652,129.41542040316887,127.09188897025071,127.42807006835938,489300.0
2025-10-27,127.68513804202082,128.43657062662018,127.00290900843953,127.32919311523438,521700.0
2025-10-28,127.29953156353623,127.65547648827675,126.03395296154486,126.6568603515625,413500.0
2025-10-29,125.84608767724626,126.06361040803851,122.02957306455488,122.9095458984375,651100.0
2025-10-30,122.6425973459498,124.10591981246533,121.65386309537952,122.95899200439453,702600.0
2025-10-31,113.99116650647636,116.76950718685458,102.0670345015107,114.70305633544922,2758200.0
2025-11-03,114.78215353846566,114.78215353846566,107.07003104374891,111.84561920166016,1661000.0
2025-11-04,113.0716415827989,114.69316503673943,111.26225622049985,112.89366912841797,1029100.0
2025-11-05,113.04198468525121,114.73271928879292,111.49955417930168,114.26801300048828,896900.0
2025-11-06,113.72420954512762,115.64235639440284,112.51796010267421,114.84148406982422,880300.0
2025-11-07,114.9205721317626,115.60279355716192,113.39792065465342,114.91068267822266,697200.0
2025-11-10,114.68328006091402,115.45449154553131,112.71570107535919,115.06888580322266,514000.0
2025-11-11,115.64235215314066,118.16362740289492,115.64235215314066,116.93759155273438,484800.0
2025-11-12,117.00680708571316,118.32182544371216,116.58165860151216,116.82884216308594,547500.0
2025-11-13,116.96725913412712,120.50692184487997,116.96725913412712,118.8458480834961,679400.0
2025-11-14,118.42069332802943,119.33033453666947,117.05624283023447,117.27376556396484,521200.0
2025-11-17,117.15511423578639,118.1438484441411,116.24548057452645,117.99553680419922,820200.0
2025-11-18,118.31193671929118,118.75686408712447,116.72995598156568,117.96587371826172,817400.0
2025-11-19,118.16362210922091,118.16362210922091,116.38389759577892,116.6706314086914,598900.0
2025-11-20,116.67063483535937,118.26249749040201,116.04773500908134,117.24410247802734,507400.0
2025-11-21,116.79916971414367,120.86286792776397,116.79916971414367,120.1509780883789,509100.0
2025-11-24,119.48852930748254,121.02107037008182,119.08315219875638,120.10154724121094,740000.0
2025-11-25,121.0309595133857,122.68214385066395,121.0309595133857,122.04935455322266,543600.0
2025-11-26,121.63407548431789,123.11717675407199,121.63407548431789,122.41517639160156,538000.0
2025-11-28,122.23721179455744,124.65961521692697,122.23721179455744,123.34459686279297,315700.0
2025-12-01,123.47312464549341,123.55222519221778,121.64396787729149,121.89115142822266,536800.0
2025-12-02,122.37563109798752,122.46462110038372,119.4390968008952,120.2300796508789,325400.0
2025-12-03,120.08176988930819,122.86011822072538,120.04222715811682,120.68489837646484,543100.0
2025-12-04,120.82332005860296,122.6821452414219,120.55636513524256,120.64534759521484,708000.0
2025-12-05,120.61568357957054,122.11856379579517,119.26112254625717,120.53659057617188,537000.0
2025-12-08,119.55773823925648,120.72444490270962,117.95599365521366,118.71731567382812,496600.0
2025-12-09,118.25260671307173,118.49979025868578,114.06037589162156,114.41632080078125,640300.0
2025-12-10,114.86125658975384,116.47289825316335,113.83297205936897,115.84999084472656,734700.0
2025-12-11,116.6310870053096,117.33308739219939,115.84010415999195,116.68052673339844,389700.0
2025-12-12,117.18477675810965,120.26963024864754,116.32458281214376,120.10154724121094,656400.0
2025-12-15,120.11144352151473,121.08039889052128,119.12270924260135,120.95186614990234,588600.0
2025-12-16,121.28802692871906,122.45473362902362,118.17351257639858,121.44622802734375,644800.0
2025-12-17,120.73433285185864,123.19627887906455,118.72720364799784,122.2372055053711,567300.0
2025-12-18,122.2767604710972,122.72169540087228,120.65523693661119,121.23859405517578,457100.0
2025-12-19,121.95048213130443,122.92933449703057,119.89392056770684,120.02245330810547,1300400.0
2025-12-22,120.02244905131522,122.30642273678362,119.70605439556444,121.35723876953125,527800.0
2025-12-23,121.48577032424926,121.6439638690421,119.95322934159698,120.81343078613281,311700.0
2025-12-24,121.14961134349309,121.78240068560056,120.3882892593289,121.36713409423828,198000.0
2025-12-26,120.99141254975284,122.08890816765887,120.34873378036154,121.86149597167969,306000.0
2025-12-29,121.90103810595791,122.90954365167185,120.9419647432383,121.82193756103516,400200.0
2025-12-30,121.41656795360201,122.89966931682952,121.04084411378047,121.35723876953125,289800.0
2025-12-31,120.15097596397585,121.94058998507745,119.98289296138277,120.58602142333984,314300.0
2026-01-02,120.36850209754444,121.61430932967109,119.4193181494529,121.15949249267578,295100.0
2026-01-05,120.38828287586783,123.17651312401219,120.38828287586783,121.61431121826172,435700.0
2026-01-06,120.8430922091253,121.46599202442482,118.7568624940921,119.20178985595703,777200.0
2026-01-07,119.31055741898699,120.57613602320409,116.28503309681528,119.0831527709961,478500.0
2026-01-08,118.56900865138992,121.98014631699301,118.17351344536358,121.06062316894531,330000.0
2026-01-09,120.70467850674399,123.5621198728979,120.09166055886544,122.4547348022461,429100.0
2026-01-12,122.60303947816963,123.88839694168902,121.59453392415777,123.72030639648438,477300.0
2026-01-13,123.64121411549613,124.02681984811237,121.15948917361368,122.10867309570312,351900.0
2026-01-14,122.71179941985773,125.7274416797615,122.71179941985773,125.42092895507812,611700.0
2026-01-15,125.70766789113175,125.78676843900955,123.11718152395939,123.7005386352539,381000.0
2026-01-16,122.60304567683241,123.78952374665012,121.85160554277793,123.30504608154297,363400.0
2026-01-20,123.49289879622381,124.11579860493296,122.0493478196131,122.42506408691406,275100.0
2026-01-21,122.90955081825824,124.20479780070094,122.50417370291805,123.60166931152344,421000.0
2026-01-22,123.64120901396967,124.98588806730808,122.66235676992284,123.06774139404297,369700.0
2026-01-23,122.93921055756546,124.85735737798285,122.4745118058816,124.58051300048828,429500.0
2026-01-26,124.99577817123766,125.55935637440064,123.69064930373163,124.92656707763672,315400.0
2026-01-27,123.54234245634069,124.87713973871088,122.77113094244734,123.33470916748047,303100.0
2026-01-28,122.80078648003611,123.6609879626866,121.8614919932062,122.3064193725586,347800.0
2026-01-29,122.88978028418853,123.86862507511535,121.20892754069328,122.4547348022461,386000.0
2026-01-30,121.52533188143772,123.60167232496788,121.27814831569736,123.54234313964844,512700.0
2026-02-02,122.80078342815366,124.49152553193812,122.80078342815366,123.42369079589844,489100.0
2026-02-03,122.51405462375108,126.48876266797768,122.29653189940339,123.22593688964844,658700.0
2026-02-04,124.77433039015442,129.44927260782487,123.77184577350829,128.26812744140625,589400.0
2026-02-05,126.71975064755804,128.1192596554473,121.05225107397254,123.05722045898438,2144200.0
2026-02-06,126.58078326238557,134.97782150042084,126.58078326238557,133.31031799316406,1045700.0
2026-02-09,132.5857587104382,138.531180271334,132.2582131007177,137.43936157226562,1043400.0
2026-02-10,136.78427392403074,139.88104683101494,136.78427392403074,139.126708984375,622100.0
2026-02-11,137.99519392074043,139.50388475135443,137.56840169460276,138.9678955078125,584300.0
2026-02-12,139.11678651599092,140.94308767923593,138.3525134196047,139.46417236328125,572700.0
2026-02-13,139.46416820425452,141.86615414747763,139.36492159879577,141.51876831054688,471900.0
2026-02-17,138.2234773285034,142.55102629654255,138.2234773285034,140.59568786621094,614700.0
2026-02-18,140.41703714664675,142.04482998774162,139.791721402891,140.66517639160156,582000.0
2026-02-19,140.5956812663536,142.25326464590432,139.98030082414553,142.09445190429688,525500.0
2026-02-20,142.0547550361601,144.0597244456509,140.94309602664507,143.97039794921875,664500.0
2026-02-23,142.42199361111417,145.15152505885825,142.06467252487357,144.63539123535156,513500.0
2026-02-24,144.98279666295065,145.8165408414096,142.77931908758302,143.06715393066406,429800.0
2026-02-25,141.3500320156877,142.5907281428982,139.3847584456305,141.61801147460938,348900.0
2026-02-26,142.45178416412276,142.8488009040386,139.9505362960431,140.73464965820312,331300.0
2026-02-27,140.47658357934912,142.9381205686862,139.9505296087492,142.64036560058594,344600.0
2026-03-02,141.93563886113196,142.2830398395081,140.56590547180699,141.60809326171875,335000.0
2026-03-03,139.5931967078321,140.26814325067423,135.90088396317486,138.71974182128906,347300.0
2026-03-04,138.302888395737,138.47162126788456,134.9976717766612,136.02000427246094,389000.0
2026-03-05,134.98775502807862,135.32522078079646,133.40959299752922,133.72720336914062,452300.0
2026-03-06,133.0026313554941,133.0026313554941,130.02496050425168,131.096923828125,398500.0
2026-03-09,129.9951790988654,132.98276993154295,126.58078092139597,132.75448608398438,545700.0
2026-03-10,132.3574660154593,133.1316591702968,130.42196798314936,131.14654541015625,503100.0
2026-03-11,130.8190202738326,132.28800044532838,129.0721101988683,131.03738403320312,563800.0
2026-03-12,130.29295237048808,131.8016279987067,127.68252279954663,127.90088653564453,620600.0
2026-03-13,129.1812869710477,129.1812869710477,126.10436937058473,127.69245147705078,660600.0
2026-03-16,128.51628506786432,130.4319280867629,125.06219070801843,128.08949279785156,370700.0
2026-03-17,129.00263581888095,130.04482370856644,127.28551643200822,128.5361328125,276700.0
2026-03-18,123.45423058912087,125.63786042046195,120.51626292882625,123.29542541503906,910500.0
2026-03-19,122.0944332187195,123.8909588849741,120.54603921873606,123.04728698730469,518500.0
2026-03-20,123.33512999241371,123.33512999241371,119.41452545613383,120.15894317626953,1481500.0
2026-03-23,122.59071811756196,125.39964869362488,122.0745842329971,123.21602630615234,455200.0
2026-03-24,122.2433152775169,124.28798013248851,121.95547285876513,123.22594451904297,405000.0
2026-03-25,124.50634549167631,125.62793211237509,122.78921864642815,124.88351440429688,337200.0
2026-03-26,124.28798636131239,126.3922023143744,123.19617519683187,123.76193237304688,442100.0
2026-03-27,123.01751427118627,123.28550132328671,120.85373975633635,121.08202362060547,381400.0
2026-03-30,121.64777727824665,123.01751071469691,120.19864504103799,122.44182586669922,562000.0
2026-03-31,123.46415851677581,126.01502957768723,122.67010992701152,125.08202362060547,557800.0
2026-04-01,126.39219982096562,127.68252689973865,125.38972274230011,125.80659484863281,380200.0
2026-04-02,124.2085781211438,126.14406117582702,123.32520302720033,125.07210540771484,297500.0
2026-04-06,123.66266876079281,125.25076596450165,123.66266876079281,125.07210540771484,461100.0
2026-04-07,124.38723692091199,126.22346576757812,123.8711106378232,124.67507934570312,376900.0
2026-04-08,130.4021481364575,131.68254004802253,127.19617800807119,131.03738403320312,645200.0
2026-04-09,130.24332882387228,131.45424955756675,126.39220287440348,130.42198181152344,424100.0
2026-04-10,131.2656579543429,131.71230555728022,129.87608426848973,130.521240234375,407400.0
2026-04-13,129.82646170678544,131.43439923843442,126.63042687940094,131.126708984375,396300.0
2026-04-14,130.2532453341348,131.73216065356567,129.99518597737963,130.03488159179688,315500.0
2026-04-15,129.83636721114993,130.0547309433663,127.64282491736233,128.68499755859375,407100.0
2026-04-16,125.9554827551545,129.3599535123959,125.9554827551545,127.33512878417969,393800.0
2026-04-17,128.68501330537714,131.31529853067389,128.68501330537714,129.65773010253906,401100.0
2026-04-20,129.59817078840075,131.00759986778516,128.69494031122633,129.945556640625,403600.0
2026-04-21,129.727195499975,131.2656618627598,125.7470474243164,125.7470474243164,310200.0
2026-04-22,126.33264680138942,126.33264680138942,122.04480110008107,123.62297058105469,458900.0
2026-04-23,124.44679072012924,126.49146323670142,123.51379231359721,124.01007080078125,440800.0
2026-04-24,123.48400922187079,123.48400922187079,121.6577005635927,123.15646362304688,440900.0
2026-04-27,123.11676141393268,125.2904634945878,122.6204829533344,123.80162811279297,359700.0
2026-04-28,125.18128618602746,125.70734016180099,122.79914797388655,124.8338851928711,354300.0
2026-04-29,124.20857785922294,124.96292327213307,121.87607050853111,121.9852523803711,448400.0
2026-04-30,122.51130595027864,125.14158341040145,120.97283963229869,122.75944519042969,764800.0
2026-05-01,126.26316859263083,127.5237125861033,117.0224658192811,118.13412475585938,989400.0
2026-05-04,117.79666211505766,120.84381172589876,116.58574139374336,119.7023696899414,739600.0
2026-05-05,120.00014032911528,122.78922301811379,119.92073395333378,121.1217269897461,628600.0
2026-05-06,122.74597925597982,125.94466800462597,121.24129756714204,122.19791412353516,917000.0
2026-05-07,122.5068295340525,126.02439054042098,122.13813047351475,124.66918182373047,749700.0
2026-05-08,124.78875603965518,125.4165335007669,119.9658058031768,120.56369018554688,794900.0
2026-05-11,120.79288554794945,120.79288554794945,119.0191585502766,119.53732299804688,706100.0
2026-05-12,120.02559365453983,120.43415267647454,116.72725880994862,117.6340560913086,696600.0
2026-05-13,117.58423293808002,118.33159035082205,116.01976505817387,117.46465301513672,679500.0
2026-05-14,118.31166263789773,119.73662439056804,116.62761485678391,117.57426452636719,531000.0
2026-05-15,117.49455009110837,117.5045093824967,114.06666843041747,114.26596069335938,447000.0
2026-05-18,115.19268785792543,116.90662874327987,114.76420263658683,115.40194702148438,433100.0
2026-05-19,115.48166685737739,115.63113986049136,112.05378509001822,113.20970153808594,575800.0
2026-05-20,113.66807993613209,115.04321484042606,111.15696237122292,114.85388946533203,562600.0
2026-05-21,116.08951407739181,116.08951407739181,112.37265332877841,115.1030044555664,345600.0
2026-05-22,115.39198749681162,116.38846404651633,114.30582410432685,115.82047271728516,405800.0
2026-05-26,115.79056648170686,116.55785764558959,114.96349676302546,115.96993255615234,344500.0
2026-05-27,116.52796630163347,117.69384200162881,114.32575411191587,114.89374542236328,464000.0
2026-05-28,114.40547144179769,115.93007936247552,112.95061657623215,115.58131408691406,510100.0
2026-05-29,114.65458561775299,116.84683851674723,113.34920381323532,115.44180297851562,559600.0
2026-06-01,114.28589767180515,114.72434218302038,111.63526640610465,111.9840316772461,706800.0
2026-06-02,111.5555436879482,112.65167394505289,110.84804626905223,111.78473663330078,452400.0
2026-06-03,111.29646253608045,113.61824699938008,111.29646253608045,112.13349914550781,372600.0
2026-06-04,114.54497230632394,115.35212345281656,111.14699134502068,112.15343475341797,337600.0
2026-06-05,112.69152600064275,114.18624078068318,111.58544405772433,112.96057891845703,466300.0
2026-06-08,111.86445781905672,112.24311616501637,110.55906839000053,111.54558563232422,422200.0
2026-06-09,112.88085932662787,115.74074968498803,112.27300803930216,115.49163055419922,444400.0
2026-06-10,115.74074928767203,116.13934141606836,112.97054577921195,114.26596069335938,496800.0
2026-06-11,114.70441351982215,116.59772043978674,113.85740999319688,116.16923522949219,395200.0
2026-06-12,117.48458764205596,118.05257897569324,115.96993901734801,117.30522155761719,342600.0
2026-06-15,118.28175862932584,120.31457162088154,117.14577601676713,117.66394805908203,576100.0
2026-06-16,118.08246565966249,120.62348378448296,113.36912845320511,120.22489166259766,474700.0
2026-06-17,121.19147655168894,121.918900150595,119.03908362900873,119.56721496582031,680500.0
2026-06-18,120.03556323646836,122.1182031608104,118.69032142639777,119.89605712890625,750600.0
2026-06-22,119.13873446752551,120.58363003359555,118.46113010611298,119.57718658447266,468400.0
2026-06-23,119.93591657137902,122.14809569936509,118.6604278207416,120.1850357055664,514100.0
2026-06-24,121.55021059109053,124.60939323702425,121.34094382937874,123.84210205078125,404900.0
2026-06-25,125.28699706013307,127.68850153642342,124.45991971828299,125.98452758789062,363500.0
2026-06-26,125.49625757990486,126.67210019838983,124.3204149614199,125.53611755371094,727400.0
2026-06-29,125.16742108368359,125.60587320209562,123.48337326752176,124.84854888916016,446600.0
2026-06-30,124.16097333332938,125.86494727656601,123.5033027809896,124.75885772705078,329300.0
2026-07-01,124.67914609082169,126.39307933521575,123.66273577346423,124.80868530273438,405600.0
2026-07-02,125.82508774888942,127.77818082996899,124.96812492977865,126.5325927734375,468400.0
2026-07-06,125.98452783897301,126.6023460237271,123.74245564919634,125.56600952148438,431400.0
2026-07-07,126.18381913439254,128.26645901687073,125.71548155556971,127.2400894165039,392700.0
2026-07-08,126.00445175211411,126.26353777363065,122.60647080352626,123.77234649658203,537700.0
2026-07-09,124.02146439127118,125.03787467960888,123.34386006655016,124.0114974975586,302100.0
2026-07-10,124.55956853594634,126.53259544666133,123.93179104742975,125.08769989013672,385200.0
2026-07-13,125.64571994715708,126.72191640641843,123.96167980892794,124.449951171875,391600.0
2026-07-14,127.96751666781715,128.95403392567474,127.5091383673285,127.82801055908203,739900.0
2026-07-15,129.25298235497795,130.3092450844948,127.99741214779503,128.65509033203125,466800.0
2026-07-16,129.56187796196684,134.6040465870392,129.56187796196684,134.27520751953125,579300.0
2026-07-17,135.351401437915,136.16850424088722,130.24944675099272,132.1427459716797,530800.0
2026-07-20,131.9135687694055,131.9135687694055,129.2928306127641,129.4522705078125,422900.0
2026-07-21,130.07008242817932,130.59821378154385,127.46927803301472,128.45579528808594,328800.0
2026-07-22,129.35261865201468,130.02025611657908,128.02730301458666,128.71487426757812,309900.0
2026-07-23,128.39600579528673,129.36258923692642,127.71839385448645,128.54547119140625,382800.0
2026-07-24,129.13338680160044,132.26232242316664,129.13338680160044,131.8936309814453,335900.0
2026-07-27,132.72071171310446,133.60757521827134,132.19258036761323,132.9000701904297,411200.0
2026-07-28,134.9030016293852,137.54365843276426,134.3549364800917,137.32443237304688,593100.0
2026-07-29,135.52081464440568,136.11870667337666,134.0759266469227,135.75,580000.0
2026-07-30,136.39999389648438,136.39999389648438,133.11000061035156,133.8699951171875,627000.0
2026-07-31,137.4600067138672,139.57000732421875,132.1699981689453,133.9600067138672,886500.0
2026-08-03,137.22999572753906,138.4600067138672,134.52999877929688,136.77000427246094,642500.0
2026-08-04,137.8699951171875,137.8699951171875,135.33999633789062,136.17999267578125,511900.0
2026-08-05,136.8699951171875,136.8800048828125,134.8699951171875,136.75,454800.0
2026-08-06,138.6199951171875,138.69000244140625,134.6699981689453,135.77999877929688,545000.0
2026-08-07,135.05999755859375,137.67999267578125,134.7100067138672,135.4199981689453,686300.0
2026-08-10,134.38999938964844,134.52000427246094,132.92999267578125,133.67999267578125,446700.0
2026-08-11,132.8000030517578,135.0500030517578,132.8000030517578,134.75,343700.0
2026-08-12,133.50999450683594,134.47000122070312,132.27000427246094,133.14999389648438,315100.0
2026-08-13,134.44000244140625,134.44000244140625,132.08999633789062,132.57000732421875,490800.0
2026-08-14,132.08999633789062,132.75,129.55999755859375,132.10000610351562,381600.0
2026-08-17,133.16000366210938,133.16000366210938,130.22000122070312,131.74000549316406,374500.0
2026-08-18,132.75,133.47000122070312,131.22000122070312,131.72999572753906,500100.0
2026-08-19,133.0500030517578,134.3800048828125,132.2899932861328,132.92999267578125,390400.0
2026-08-20,131.4499969482422,133.8300018310547,130.89999389648438,132.9600067138672,420900.0
2026-08-21,134.0399932861328,135.1300048828125,133.10000610351562,134.8000030517578,400500.0
2026-08-24,135.36000061035156,136.33999633789062,134.38999938964844,134.75,282300.0
2026-08-25,135.58999633789062,135.58999633789062,133.22000122070312,134.72000122070312,280900.0
2026-08-26,135.0,136.63999938964844,134.44000244140625,135.24000549316406,281400.0
2026-08-27,133.77999877929688,134.69000244140625,132.25999450683594,132.86000061035156,295700.0
2026-08-31,132.2100067138672,132.44000244140625,130.8300018310547,131.6199951171875,389200.0
2026-09-01,131.64999389648438,132.06500244140625,130.78250122070312,131.10499572753906,138380.0
