Date,Open,High,Low,Close,Volume
2023-08-04,116.0229789013594,117.47542506964436,115.8883151154075,116.0422134399414,116500
2023-08-07,116.12880236645722,117.02335896910391,115.91718572130664,116.6674575805664,140300
2023-08-08,115.50355672771177,116.77324907703569,115.14765539045683,116.50392150878906,270100
2023-08-09,116.5039344546705,118.68741805869142,115.92679550015245,117.18687438964844,287500
2023-08-10,117.1580124418893,118.86055171557352,117.1580124418893,117.57162475585938,216000
2023-08-11,116.87907317028017,118.52390161733356,116.87907317028017,117.93714904785156,226500
2023-08-14,117.3792460522628,118.30265808105469,116.94639918641944,118.30265808105469,145700
2023-08-15,117.95637129779684,118.24494075189612,117.33114971162514,117.43695068359375,249000
2023-08-16,117.09068962905717,118.4661904693211,116.8598311066357,116.90792846679688,291100
2023-08-17,117.31191625877085,117.98524258714839,116.98487770335657,117.00411224365234,186600
2023-08-18,116.75401425810986,118.71626752361922,116.75401425810986,118.59122467041016,443100
2023-08-21,118.45656631277183,119.71663785760668,118.36999253455805,119.06255340576172,358800
2023-08-22,119.14911831718098,120.91898944421266,118.08142160996854,118.26417541503906,429600
2023-08-23,118.36999112470143,118.85093535301714,117.64857478222787,118.68741607666016,305000
2023-08-24,118.78360359604675,120.67852503204736,117.91790251632227,120.34186553955078,278400
2023-08-25,120.78433122188993,122.81391641913827,120.21682056433897,122.67925262451172,493000
2023-08-28,122.76581404817435,124.64150083437637,122.76581404817435,124.47798156738281,331900
2023-08-29,124.85313882363003,126.93082164908694,124.46837459081131,126.79615783691406,472400
2023-08-30,127.32514662754737,128.18122660764476,126.6806832427325,127.82533264160156,298900
2023-08-31,128.2004954501464,128.63334233072922,127.20013788886044,127.5079345703125,305800
2023-09-01,128.02734015187872,128.69103075802838,127.46944316985002,127.49829864501953,252000
2023-09-05,126.66144594880058,126.9500153780096,122.50609607084371,122.70809173583984,325300
2023-09-06,122.91971901854386,123.13132830124047,121.39031265265571,121.59231567382812,291100
2023-09-07,121.47689297594711,122.32335216826341,120.37071979304557,120.58233642578125,328600
2023-09-08,120.72661517649743,121.84240190476012,120.35147928747043,120.53423309326172,238800
2023-09-11,122.15021460292593,123.05439211199419,121.5923248683561,122.1694564819336,333500
2023-09-12,121.30374940797992,122.43877803875952,120.64004404886371,121.7077407836914,258000
2023-09-13,120.98632753897883,121.76545483171917,120.34186404156085,120.59195709228516,279300
2023-09-14,121.20756165253754,122.44839859285891,121.20756165253754,121.9289779663086,217900
2023-09-15,121.66925510218753,122.3521949487362,120.39956277617969,121.13059997558594,589200
2023-09-18,121.54421485235763,121.54421485235763,120.15909325311112,120.85165405273438,175100
2023-09-19,120.89975538209652,120.89975538209652,119.33187259288644,120.53423309326172,218600
2023-09-20,121.04403393623863,121.29412697753905,119.81281794618458,119.8801498413086,206200
2023-09-21,119.59160476870765,119.61083931064508,117.53316386592479,117.56201934814453,335700
2023-09-22,117.66780374067143,118.21607980720373,117.45618712926849,118.00446319580078,341200
2023-09-25,117.34076318501396,119.3992037620622,116.84058444889169,119.31263732910156,258800
2023-09-26,118.82208002776298,119.48578541206082,118.53351789357484,118.88941192626953,547000
2023-09-27,119.31265563390816,119.70702612005391,118.1872478010048,118.81246948242188,362400
2023-09-28,119.13951499349325,120.85167541824232,118.56238333798404,120.68815612792969,219300
2023-09-29,121.66927149003342,121.99631738853884,120.03406401338636,120.2745361328125,330900
2023-10-02,119.7839706824147,120.69776913733538,119.26455002499831,120.2841567993164,244100
2023-10-03,119.29339108402293,120.5342279480784,117.82170306856494,118.18722534179688,236300
2023-10-04,118.8413150678333,119.90901178172992,117.66781004256849,119.49539947509766,208200
2023-10-05,119.2356870928497,120.16872002997181,118.11990034706665,119.03369140625,466700
2023-10-06,118.89902522929134,121.86164325055658,118.68740860796868,121.59231567382812,491700
2023-10-09,121.02480176411956,122.3714470315645,120.89975891033677,122.10211944580078,275700
2023-10-10,122.3906880798059,123.70847793865926,121.68851359938441,121.71736907958984,322000
2023-10-11,122.66962432861328,122.83314359247812,121.82316519334888,122.66962432861328,212900
2023-10-12,122.37144727599267,122.54458748699037,120.29376474402021,120.64004516601562,189300
2023-10-13,121.19794575056598,121.84240925638196,120.62081414328858,121.1690902709961,324900
2023-10-16,122.50610354279256,122.57343543523135,121.36145403270736,121.88087463378906,275200
2023-10-17,121.2075666764976,123.44876120681954,121.2075666764976,122.62154388427734,314400
2023-10-18,122.03478544306672,122.80429176930639,121.46726746403726,121.94821166992188,287300
2023-10-19,121.2749071972549,122.61193166216363,120.61120176552791,120.93824768066406,443900
2023-10-20,121.13062497565365,121.65966661177283,117.28307078897507,117.56201934814453,446500
2023-10-23,117.08105478916937,118.46617640474612,116.59048966054829,116.86943817138672,379000
2023-10-24,117.4754210963126,119.0529173972163,117.08105069039952,118.6393051147461,312100
2023-10-25,118.15678039457973,119.45965936903156,117.63562733217842,118.098876953125,431300
2023-10-26,117.02760662773419,121.01345262337937,117.02760662773419,119.12186431884766,576000
2023-10-27,119.16046741363326,119.51754841038496,116.1590166748117,116.94074249267578,364000
2023-10-30,117.66457150071054,118.0506115995379,116.63191847013125,117.90584564208984,283100
2023-10-31,118.23397067850544,118.60070468662809,117.57770478395322,118.0023422241211,422900
2023-11-01,117.847941489138,119.12186865336518,117.36539320930797,118.63932037353516,360500
2023-11-02,119.40173736847875,119.95184206610242,118.68756803683264,119.2666244506836,384300
2023-11-03,120.08697401221825,121.57322370656975,120.08697401221825,120.97486114501953,278000
2023-11-06,120.89764432950582,121.34159523213705,120.39579735185238,120.82044219970703,173500
2023-11-07,120.27034577683186,120.62742682079855,119.83604787151418,120.20278930664062,205000
2023-11-08,120.5212478211661,121.10995727302534,120.06765865285827,120.75287628173828,175800
2023-11-09,121.30297581014376,121.30297581014376,119.73951690200494,120.04834747314453,118600
2023-11-10,119.90359356052024,121.3994961613825,119.5658112399359,121.33193969726562,195600
2023-11-13,121.01344761610507,121.10031012853287,120.02905244156845,120.18346405029297,183100
2023-11-14,121.55391115797988,123.39724915782807,120.936249936579,123.3875961303711,267400
2023-11-15,123.35863312683614,124.30443092733428,122.90503659818405,123.25247192382812,388600
2023-11-16,123.1945687845745,124.13070619763076,122.41283561845891,123.09806060791016,217000
2023-11-17,124.07281379686883,124.57466814111162,123.15597499237893,123.46480560302734,162700
2023-11-20,123.00155853990697,123.19458227747852,122.01716324915157,122.8760986328125,213900
2023-11-21,123.01121297209009,123.8218979529415,122.76028579193338,123.44551086425781,160600
2023-11-22,123.96665977430045,124.69048225028065,122.914707976832,124.08248138427734,174800
2023-11-24,124.46850623760841,124.46850623760841,123.6288769312162,124.04386138916016,65900
2023-11-27,123.35864729016578,123.82189689857947,122.42250240875883,122.56726837158203,367500
2023-11-28,122.56727569817069,122.57692872642998,121.10997768135032,121.22579193115234,218000
2023-11-29,121.25472870985266,121.98820414200175,120.55985802288006,120.99415588378906,331800
2023-11-30,121.07137144789151,122.69273410973697,120.45371018272209,122.46111297607422,301000
2023-12-01,122.00749831802362,124.05349819494825,122.00749831802362,123.62886810302734,218300
2023-12-04,123.00155352374544,124.38164926101614,122.46110180679085,123.93769836425781,192000
2023-12-05,123.77364210066986,124.1982869716721,121.48636044972991,121.59252166748047,178000
2023-12-06,121.9785577252861,122.85679915866584,121.48635640148973,121.95925903320312,179500
2023-12-07,121.83378385096688,122.67342048254547,121.59250971853534,122.07505798339844,254000
2023-12-08,121.94960678177719,123.04981631507553,121.23543736051924,122.8760986328125,265800
2023-12-11,122.81818541054639,123.22352418250709,121.93029101464404,123.11736297607422,338000
2023-12-12,123.19458223267412,123.62888011972512,122.25843735432503,123.030517578125,210300
2023-12-13,122.7409936596384,124.48782362323088,122.7409936596384,124.10177612304688,425000
2023-12-14,124.57466295525923,125.47219566747552,122.45144615272285,122.95330047607422,412900
2023-12-15,122.72169244407033,124.09212790759474,121.57322508471096,121.58287811279297,713000
2023-12-18,122.28738762368339,122.76993591705903,121.48635568953519,122.61552429199219,240500
2023-12-19,123.25248896561007,123.65783514364217,121.6311263427904,121.82415008544922,659100
2023-12-20,121.62147008946454,122.50936455594228,121.08101835055845,121.18717956542969,346400
2023-12-21,121.83378846573932,121.83378846573932,120.49230482765589,121.51531219482422,421900
2023-12-22,121.98820682835046,122.60586803857178,121.71798096926643,121.86273956298828,312200
2023-12-26,121.7372726533808,122.44179634238442,121.20646662994645,121.43809509277344,274700
2023-12-27,121.71796480092937,122.05574707991528,120.66600585997158,120.90727996826172,283100
2023-12-28,120.61776308128793,121.40914191198428,120.05800534752414,120.830078125,343600
2023-12-29,120.820430362007,120.98449499602071,119.24731839145845,119.30522918701172,313500
2024-01-02,118.33048400507984,119.76847574725994,118.02165341555587,118.59105682373047,313100
2024-01-03,120.78184292338378,122.81819737149002,118.85164969204916,120.98451232910156,531700
2024-01-04,120.81079207973853,121.52496149850643,119.79743770955358,119.8843002319336,353300
2024-01-05,119.45965144487354,120.02906224611816,118.69722427618132,119.864990234375,423000
2024-01-08,119.7395169074447,120.79147587247215,118.09885587877267,120.0097427368164,352400
2024-01-09,119.39209643843853,120.28963654792885,118.6779270344352,120.27998352050781,250300
2024-01-10,120.11591846241205,121.04241028792013,119.89395037419895,120.82044219970703,279600
2024-01-11,121.00379418819725,122.53830142244865,120.57915674328704,122.41283416748047,323100
2024-01-12,123.4261986038641,123.50340809589281,121.52495720049569,122.01715850830078,231700
2024-01-16,121.48634817990717,122.39354127156845,121.12926717726768,122.3838882446289,257500
2024-01-17,121.54427443645164,122.82784738477424,121.49601665871864,122.26809692382812,336900
2024-01-18,122.876100447986,125.47220532952528,121.90135080738276,124.63257598876953,444200
2024-01-19,125.18269023740162,126.87160933829033,124.0535142223177,126.2346420288086,418000
2024-01-22,126.33112146870488,127.20936278677414,126.00299220465814,126.61100769042969,266200
2024-01-23,127.19973175247551,127.24798952655084,125.78103860665047,127.22868347167969,217800
2024-01-24,127.50854252440655,127.6726071592471,125.98368831528413,126.21531677246094,294400
2024-01-25,127.42171190609713,127.75950163040133,125.82930829427782,126.66893768310547,332300
2024-01-26,127.08389676698607,127.9621380935772,126.81367093206627,127.10320281982422,219900
2024-01-29,126.47592015710919,127.96216253302498,125.93546838404889,127.634033203125,187800
2024-01-30,127.4217107599647,128.44471086271545,127.03567798669486,127.634033203125,228400
2024-01-31,128.14712681809578,128.53437487913746,125.0395405277531,125.736572265625,537500
2024-02-01,126.29805168978267,126.9273093818835,125.47516261057311,126.3367691040039,298800
2024-02-02,125.81399845204739,126.54007181280666,124.58451009166825,125.94953155517578,344800
2024-02-05,125.01046617900383,127.25644525949836,123.96491884477388,126.48196411132812,319500
2024-02-06,126.31742086735336,127.20806924035398,125.1750723363318,126.94669342041016,369700
2024-02-07,127.21774880570729,128.19552236848855,125.24282081394894,127.59530639648438,393000
2024-02-08,127.4403846693048,130.53829445292226,127.34356898744214,127.90506744384766,620700
2024-02-09,127.8954242006926,134.76892573911803,127.31455950628941,134.5269012451172,650900
2024-02-12,134.72051017566284,135.98871608812559,133.12313974347538,133.21995544433594,491300
2024-02-13,132.3293155563288,132.94889767408426,130.67386150701182,131.5935516357422,275900
2024-02-14,131.91300327103065,133.0747324694231,130.8577801954245,132.79397583007812,335000
2024-02-15,132.7940023421707,133.41358447807835,130.27695637779738,130.73194885253906,471400
2024-02-16,131.05138100848956,133.59748268821022,130.7319069946388,133.11343383789062,453900
2024-02-20,132.76494422449613,135.6692378984507,132.58100326162543,135.2335968017578,373000
2024-02-21,134.643058365309,135.64019802544166,134.5559330991619,135.53370666503906,276300
2024-02-22,135.98871968077944,137.87650772141765,135.6014864111109,136.95681762695312,295700
2024-02-23,137.44082090342073,137.51827048600433,136.11453188517095,136.85028076171875,190300
2024-02-26,136.9858566979064,137.52798917361454,136.30819110327124,137.3924560546875,199200
2024-02-27,137.39243933350093,137.64413944601768,135.3400767046714,135.83380126953125,244600
2024-02-28,135.19485448974754,136.73414124839545,134.88507086916457,135.9306182861328,189600
2024-02-29,136.14363984493752,137.11173794006584,135.36915841443394,135.97906494140625,250600
2024-03-01,135.4175594116224,136.29851740682517,135.10776094631743,135.81446838378906,151400
2024-03-04,136.20170952806765,137.58608257287685,136.0758520614475,137.4311981201172,260300
2024-03-05,137.73127267874108,138.64128693816335,137.21818204685397,137.97329711914062,190200
2024-03-06,138.37021994084103,139.05757592063267,137.93457885855102,138.50576782226562,184000
2024-03-07,139.89017632472982,140.50975852172388,139.2512280294534,140.03538513183594,250100
2024-03-08,140.09345993941886,140.44197579004816,138.40896419937695,138.52513122558594,185200
2024-03-11,138.23470289544156,138.80589192553307,137.4505459017938,138.18630981445312,226700
2024-03-12,138.24439416826982,138.2928020215548,136.9664977471601,137.86683654785156,242200
2024-03-13,138.43800441506068,138.43800441506068,136.43403460324666,136.65670776367188,336800
2024-03-14,136.85029544184772,137.10199553324648,135.88219771369995,136.4340057373047,235200
2024-03-15,135.57242007632507,137.86682208776077,135.2820025310812,136.50180053710938,599500
2024-03-18,136.4340127765464,136.79221899940188,134.49781722035388,134.81729125976562,299700
2024-03-19,134.44941937948093,135.84348249400537,134.44941937948093,135.05931091308594,253000
2024-03-20,135.17550421499809,135.6014696220955,134.70113096218498,135.50465393066406,220000
2024-03-21,135.83380611845956,137.08266060945118,134.85603261400937,136.6373291015625,255800
2024-03-22,137.47958214730536,137.9055476013454,136.55021640394727,137.07298278808594,276000
2024-03-25,136.69539997271303,139.45448448167053,136.66635822183974,138.39926147460938,316300
2024-03-26,138.27341558365592,139.70619624368913,138.0701085385698,138.63160705566406,314200
2024-03-27,139.08663687316903,140.5194177665606,139.08663687316903,140.04505920410156,218200
2024-03-28,140.1999450522203,140.71303575776633,139.06725750918295,139.2996063232422,247800
2024-04-01,139.20278768938965,139.20278768938965,137.58606600215256,137.75064086914062,204400
2024-04-02,137.31500593788894,137.31500593788894,135.91126690307195,136.14361572265625,202600
2024-04-03,136.18232831953642,136.6857433581489,135.40784705367142,136.38563537597656,258700
2024-04-04,137.30530909164867,138.19595727130007,136.47274441493107,137.2278594970703,403600
2024-04-05,136.86970117154823,138.2056663783431,136.45341134644306,137.20852661132812,288300
2024-04-08,137.15041706598697,137.83777302127123,135.91125303201014,136.0274200439453,312500
2024-04-09,135.94029261944223,136.59860681125565,134.91411130502746,135.83380126953125,242600
2024-04-10,134.5462509693493,135.74669776324401,134.0331602299272,134.95285034179688,200700
2024-04-11,134.81729469576712,135.57240980016735,134.0331378390438,134.6914520263672,265300
2024-04-12,133.76208470665995,134.51719988484666,131.62259662579817,132.82302856445312,299200
2024-04-15,134.18804610778258,135.3497605952717,133.4329309523146,133.79112243652344,319600
2024-04-16,133.39420463004214,134.94316719612974,132.97792961895718,134.16868591308594,281700
2024-04-17,134.44943883100882,135.03028869809586,133.93634813434798,133.9847412109375,565400
2024-04-18,133.9750570093757,134.99156267697953,133.81048215225894,134.67208862304688,246600
2024-04-19,134.62369389699214,135.4562586960129,134.34295200090463,134.89476013183594,276600
2024-04-22,135.09803598219477,136.64698342744765,134.80760371996035,135.84347534179688,298800
2024-04-23,135.31104215956182,136.65669759538656,135.06901769432713,135.6789093017578,417200
2024-04-24,135.88281662716403,136.80520507967753,135.5818281146395,135.94107055664062,559200
2024-04-25,135.77602463073538,137.14505135391553,134.882763065245,136.10614013671875,694400
2024-04-26,137.87324676430742,144.194050138077,137.7761470024205,139.1645965576172,489500
2024-04-29,140.68894676515575,143.71828418532212,140.17435067690909,142.12594604492188,676700
2024-04-30,141.50452795897255,141.85406627729742,139.8733442016764,140.18405151367188,585100
2024-05-01,140.77634869572992,142.9318328954004,140.37826043918207,141.15501403808594,359600
2024-05-02,141.52395235638076,142.46576363326017,141.06761019890962,141.67930603027344,356500
2024-05-03,142.83474149980546,142.85416441513408,140.6307072933261,142.54345703125,303300
2024-05-06,143.46583362092616,144.74747925029178,142.88327954740367,144.70863342285156,260200
2024-05-07,144.00957355262796,146.00970404941293,144.00957355262796,145.36888122558594,392900
2024-05-08,145.36887962927,146.4854527186998,145.13584910988936,146.40777587890625,223500
2024-05-09,146.6116974972741,147.32047837661355,144.31057824435283,144.74749755859375,299100
2024-05-10,144.62126017257594,144.6698100517693,143.78625262261644,144.1746368408203,186300
2024-05-13,144.21346995257653,145.13585840929454,142.59200470826642,143.57264709472656,167500
2024-05-14,143.99014505242278,143.99984910137368,143.18426452924012,143.6017608642578,137600
2024-05-15,143.6600474298775,144.02899393523714,142.50462840164852,142.9998016357422,211100
2024-05-16,143.08715481169418,143.60175086174465,142.17447055225648,143.25221252441406,235500
2024-05-17,143.5532250739488,143.86391760755848,142.85414835414977,143.37844848632812,169500
2024-05-20,143.30074574489308,144.09692207115165,142.76672684500488,143.8638916015625,163400
2024-05-21,143.64063969473372,144.3591246810753,142.8153360686792,144.27174377441406,280400
2024-05-22,143.7668346921676,144.50474243328088,143.18426581237048,144.4658966064453,283300
2024-05-23,144.33971700612148,144.62128264464536,143.27167875928185,143.42703247070312,171700
2024-05-24,144.1648896439771,144.50472391620215,143.0774436774011,143.78622436523438,162300
2024-05-28,143.32992330845792,143.48527700970283,141.58224602315815,142.44638061523438,318400
2024-05-29,141.41716447863772,142.4366527072403,140.31029535438608,140.63070678710938,229700
2024-05-30,140.91230183602912,142.70852907736696,140.78607509675612,141.8929443359375,328100
2024-05-31,141.84439598117072,143.533834234088,141.67933822091052,143.3979034423828,358900
2024-06-03,144.18433298516325,144.18433298516325,142.0288488421779,143.85421752929688,266200
2024-06-04,143.3590163849127,144.07751597180606,142.4366280767618,143.88333129882812,287900
2024-06-05,143.42700061426063,143.89304682966602,142.80560072193944,143.62118530273438,229200
2024-06-06,143.70858196047192,143.70858196047192,141.17443223714181,141.71817016601562,197600
2024-06-07,141.53367596430135,142.07739902580767,141.22296860610217,141.320068359375,179100
2024-06-10,140.62099421122554,141.57250958640344,139.80540960393014,141.35890197753906,125800
2024-06-11,140.69864968580106,141.50453012134668,140.15492669684025,141.27149963378906,147700
2024-06-12,141.99003776485912,142.05799574927036,139.883103202602,141.59194946289062,221300
2024-06-13,141.65020339677005,142.27160338372448,140.8054917248297,141.59194946289062,232400
2024-06-14,140.8734351702916,141.15501557544053,139.50440860403918,140.54331970214844,141500
2024-06-17,140.65980114097735,142.41719677318886,140.36853155634338,142.07737731933594,303800
2024-06-18,142.22303735719075,143.39787921333664,142.2133333077604,142.42694091796875,219900
2024-06-20,142.39782858641786,143.24254024927657,141.43659424170872,141.57252502441406,199900
2024-06-21,141.6307756362361,142.8638715174382,141.0870525181657,142.58230590820312,444100
2024-06-24,142.9415237902204,143.92216604419272,142.4075048141597,142.4560546875,182900
2024-06-25,142.52403514640127,142.53375401180762,140.30059282386082,140.65013122558594,194500
2024-06-26,140.05785425717647,140.5821544372045,138.80535032884424,139.53355407714844,192400
2024-06-27,139.6888885498047,139.69860741462887,138.135396158235,139.6888885498047,377300
2024-06-28,139.60150714084187,140.12582211775148,136.01874245488284,136.7178192138672,435100
2024-07-01,137.2712545772139,137.36833951304502,134.36814387510577,134.51377868652344,306400
2024-07-02,134.45551784033776,136.41681715340104,133.7564411508368,136.31971740722656,259400
2024-07-03,136.78582074468116,137.29069809808905,136.48483217986413,137.11593627929688,143300
2024-07-05,136.89261727770193,137.3295366167457,135.66922534996536,136.8052215576172,207000
2024-07-08,137.53340696834337,138.35871046567937,137.38777214662196,137.39747619628906,249300
2024-07-09,136.7663914889435,137.16447981154025,135.68864921029444,135.97021484375,238400
2024-07-10,136.65958343579476,137.51401399143685,136.4848216305105,137.1838836669922,142000
2024-07-11,137.09649774945188,139.13547429525167,136.65957843687883,137.96063232421875,244500
2024-07-12,139.2422698494713,141.2618233593471,139.2422698494713,140.38796997070312,263900
2024-07-15,140.55302268784044,141.45600300897715,138.98010738595784,139.2616729736328,319900
2024-07-16,139.66945266519244,141.07730995774932,139.66945266519244,140.3588104248047,178800
2024-07-17,140.14523913079555,141.5336886876332,140.14523913079555,140.65013122558594,242300
2024-07-18,140.40738917518402,142.97066571318356,140.3976851256369,142.0288543701172,434200
2024-07-19,142.32983440463798,142.32983440463798,140.45593069491323,141.69873046875,251200
2024-07-22,141.74727638845377,143.27164169328665,141.02877677052334,142.9123992919922,235700
2024-07-23,143.57265645199828,144.1940564353192,141.43659493529168,141.79583740234375,234500
2024-07-24,141.8249684790197,142.36869157146538,139.718019272778,139.9510498046875,250600
2024-07-25,139.11343221874438,140.30168787194964,137.54532532307127,137.8083038330078,558100
2024-07-26,139.40562054037346,147.35327797180082,138.64591810105864,142.84376525878906,562800
2024-07-29,142.76584597383152,144.4897929937424,141.39253199421196,143.9541015625,390900
2024-07-30,143.5450338076538,144.05149220142636,141.62629393482098,141.9574432373047,411000
2024-07-31,142.68793548619507,144.97679227316166,141.62630185383244,143.1554412841797,280600
2024-08-01,143.05804117385702,145.64881403519908,141.64575972559882,143.20413208007812,335300
2024-08-02,142.76585813776398,143.1749275760007,140.0094955037422,141.89901733398438,213500
2024-08-05,139.69780574748174,139.69780574748174,135.85059153457982,137.0193634033203,448500
2024-08-06,137.65245225788104,142.28858689391723,137.4381756914255,141.1587677001953,476000
2024-08-07,142.21066611828329,143.42813984840885,139.73676603783363,139.86338806152344,353600
2024-08-08,140.70101663202263,142.356778003838,140.70101663202263,141.7723846435547,268600
2024-08-09,141.62630065454624,141.62630065454624,139.73677887394297,140.20428466796875,263200
2024-08-12,140.22376060481798,140.42828787630694,139.05498875394557,139.5614471435547,221100
2024-08-13,139.77575009355726,141.51918118976857,139.37642991519138,140.61337280273438,212000
2024-08-14,140.37961977723546,141.04191846622177,139.7562737151191,140.1555938720703,115700
2024-08-15,141.22695417806543,143.5060614579835,141.22695417806543,143.1846466064453,277500
2024-08-16,142.30807861002003,143.01907915033655,141.8210890883735,142.90220642089844,250600
2024-08-19,142.51261052991734,143.88590958757007,142.12301002349056,143.14569091796875,191200
2024-08-20,143.15544136166255,144.45083532458932,143.15544136166255,144.25604248046875,387200
2024-08-21,144.31447092085256,145.6780504782827,143.6229541329459,145.4442901611328,267300
2024-08-22,145.67805355296156,146.48644308563473,144.8014634914536,145.11314392089844,200400
2024-08-23,145.7657034384913,146.6130604286141,145.5514268655365,146.52540588378906,221400
2024-08-26,146.75914391028522,148.69736740875544,146.23320180620857,146.252685546875,235500
2024-08-27,146.10658758715397,147.59677430031587,145.94101293699603,147.265625,208300
2024-08-28,147.00265865265132,148.01560524076524,147.00265865265132,147.59678649902344,249000
2024-08-29,148.58049863148904,148.9311316640923,147.27537034525355,148.31752014160156,187100
2024-08-30,148.2395824635224,149.4473216241324,147.69415666896893,149.20382690429688,178500
2024-09-03,148.15194689459446,148.41492538696468,145.83387210929124,146.13580322265625,362400
2024-09-04,145.70725993860023,146.97342071092024,145.70725993860023,146.80784606933594,175800
2024-09-05,147.14872868895006,147.81102718343183,146.04812781588345,146.798095703125,200600
2024-09-06,146.4670042698961,149.13569790154227,146.4670042698961,148.4149627685547,319100
2024-09-09,148.59998302653705,149.0772232245831,147.49938200179562,147.9571533203125,241500
2024-09-10,147.91819898327566,148.81425795867298,147.49939511007815,147.56756591796875,158100
2024-09-11,146.8663066160262,146.95397603273526,144.76252298810905,146.91500854492188,178000
2024-09-12,146.96369468322857,148.05454643692235,146.06763576244578,148.005859375,200400
2024-09-13,148.22986559888577,149.02852064652984,147.9474033678148,148.31752014160156,138600
2024-09-16,149.0577660487323,149.1843880969392,148.11301992403,149.0090789794922,182900
2024-09-17,149.99278031830573,151.52193462791402,147.91820009450953,149.0480194091797,259900
2024-09-18,149.75900813476628,151.4440025327287,148.73634205746214,149.08697509765625,214200
2024-09-19,150.98623601631084,154.677610065008,150.98623601631084,152.8173065185547,412400
2024-09-20,152.2426587848195,152.2426587848195,150.4602753884125,151.8530731201172,663300
2024-09-23,152.10629117339244,152.8270409482074,150.7135084054571,151.90176391601562,315800
2024-09-24,152.11603410552289,152.99262412844,151.96994319924016,152.55433654785156,246200
2024-09-25,153.20688083707267,153.76204107071635,151.81408331019855,153.05104064941406,284100
2024-09-26,153.8302663844023,154.92111825576467,153.59650604264948,154.25881958007812,371600
2024-09-27,154.55100141706893,157.3463316298126,154.1419319653425,155.72952270507812,354300
2024-09-30,155.14513832931164,156.24573956759423,154.7945052271349,156.021728515625,289800
2024-10-01,156.36259442762125,156.36259442762125,154.9113751149142,155.80743408203125,192200
2024-10-02,155.70028846125726,155.94378321896212,153.84973424739667,154.61917114257812,186900
2024-10-03,153.8789526282023,156.2846820263738,152.564074990201,154.80422973632812,367000
2024-10-04,155.7782195226645,157.2684063556804,155.18409167761138,156.4015655517578,350500
2024-10-07,155.24251230852914,155.486007058675,153.89841653196711,154.56072998046875,223300
2024-10-08,154.16139329533596,154.8821430979149,153.01210522116568,154.54124450683594,205900
2024-10-09,154.22958607287964,155.8853474593437,154.00556019446944,155.54444885253906,152600
2024-10-10,153.93741148142823,155.23280556674862,153.93741148142823,155.07696533203125,168500
2024-10-11,156.75220088173344,157.70669625153667,156.1775567716702,157.34632873535156,194400
2024-10-14,160.6968330891888,163.3947447648591,159.20664610647776,162.83958435058594,469700
2024-10-15,162.96617430440529,165.2452816100452,162.15776994657773,164.290771484375,397300
2024-10-16,164.31025487859057,164.79724438022347,161.6025944384509,161.71946716308594,330000
2024-10-17,162.63500734074424,163.94015048027507,162.18698532860228,163.52133178710938,238200
2024-10-18,164.69985199950776,164.69985199950776,163.41419260808226,164.24208068847656,171500
2024-10-21,164.0862369925915,164.10572073312753,161.9727044274876,162.00192260742188,217900
2024-10-22,161.40778308865237,162.04086342343328,160.5214587305683,161.4954376220703,228500
2024-10-23,162.17724687078498,163.6089972685699,161.83636311905678,163.28758239746094,318100
2024-10-24,164.38138841449273,164.3911490539813,162.26215240803288,162.65280151367188,547300
2024-10-25,164.96734120598276,165.87558734575057,160.75819577884172,164.95758056640625,518900
2024-10-28,165.92439581087592,167.3990718969887,164.81107199246878,165.14312744140625,350000
2024-10-29,165.07475181943673,165.52399452591067,163.7172779631245,164.75247192382812,338100
2024-10-30,164.41068693257148,166.2173887714383,164.18605810635694,165.07476806640625,290300
2024-10-31,165.1333689439496,166.29552588082868,163.9321545452615,163.98098754882812,329900
2024-11-01,164.16653293752452,166.98890749293048,163.69775401702358,165.4458770751953,316300
2024-11-04,165.6607525408384,166.57875942258767,164.24466985207027,164.3227996826172,191800
2024-11-05,163.8149435034101,166.37363158046975,163.8149435034101,166.32479858398438,206200
2024-11-06,171.05154898002016,171.05154898002016,168.1119872286225,169.10812377929688,264100
2024-11-07,170.12375053663712,171.3542763161789,169.47919083323296,170.621826171875,412300
2024-11-08,170.61208381104976,173.67860841546667,170.4070060757364,171.64727783203125,309200
2024-11-11,172.1942029189047,173.8641813863164,171.7840176058394,172.02816772460938,189100
2024-11-12,172.51646680557812,173.09267240733516,170.85624898942092,171.5886993408203,179800
2024-11-13,171.39337158203125,172.26254534897026,170.95390437883552,171.39337158203125,168400
2024-11-14,171.05155682058597,171.67658049046,169.8405818424337,170.02613830566406,198200
2024-11-15,168.92257425336157,169.69408202115162,162.28168847937133,162.59420776367188,620500
2024-11-18,162.4965371683572,163.89308346527008,160.4847427631967,162.78952026367188,384400
2024-11-19,162.52584959099735,163.74660018722383,162.31099629392224,162.99461364746094,287600
2024-11-20,163.09226951003035,164.9868767017905,161.773852987427,164.7817840576172,221800
2024-11-21,164.74271987680694,166.24667789967594,163.81495249958823,165.90487670898438,205100
2024-11-22,166.1978542572136,168.04364337816776,166.1978542572136,167.49673461914062,241600
2024-11-25,168.02409483029683,169.94799873062775,167.7213511031337,168.46356201171875,270100
2024-11-26,168.81513216055757,168.81513216055757,167.1549145944536,168.01431274414062,140300
2024-11-27,168.6296004490124,169.81129356804752,167.50651587532045,167.7115936279297,167200
2024-11-29,168.55145899910121,169.43040829774364,168.06315880043525,168.91281127929688,117300
2024-12-02,168.93233680546206,169.05929962886407,166.84241249869427,168.7174835205078,170900
2024-12-03,169.39135453061394,169.39135453061394,167.08657674385032,168.3659210205078,160100
2024-12-04,167.86783536473908,168.84443572520686,167.02795845866723,168.55145263671875,173400
2024-12-05,167.98503908384095,168.40498502885572,166.5396745813458,167.09634399414062,245000
2024-12-06,167.58463897320985,168.61005749857284,166.85218865409922,167.14515686035156,209200
2024-12-09,167.5455502695353,169.41086047668688,166.24667004212424,166.79356384277344,301700
2024-12-10,166.72522539571543,167.36000970992765,164.25442751782737,166.91078186035156,287000
2024-12-11,167.85806889036164,170.02612280736926,167.73110607935809,168.2779998779297,418600
2024-12-12,167.65298456324717,168.5612306607672,166.78381082569527,167.62368774414062,178300
2024-12-13,166.91076951474722,166.99865996989303,165.8462787089003,166.21737670898438,153200
2024-12-16,166.15878101655767,166.93028872730167,163.66844717273165,163.70751953125,236100
2024-12-17,162.9946031274387,163.0043786686916,159.02960783108298,159.2737579345703,511900
2024-12-18,159.85973142770067,160.5726455898807,154.214981970008,154.50796508789062,468600
2024-12-19,154.80091960788565,157.78932926379758,154.52747269585277,155.15249633789062,404700
2024-12-20,155.00601023435632,156.0412042310304,153.7852597851201,154.4786376953125,730200
2024-12-23,153.49228296319632,155.1817974814259,153.28720522432621,154.81069946289062,194900
2024-12-24,155.0645922806042,155.68961586782322,154.22471543824068,155.6212615966797,100500
2024-12-26,154.7130496409685,155.89474280440862,154.7130496409685,155.13299560546875,164500
2024-12-27,154.12706058841098,155.8458716858728,153.9219679765111,154.44932556152344,145000
2024-12-30,153.32624728896786,153.80478680118333,151.37304668656063,153.06256103515625,221700
2024-12-31,153.59971586271843,154.54701948074276,152.52544941905987,153.42393493652344,317100
2025-01-02,153.96106053123728,154.4103033111957,149.85934147374135,150.552734375,239400
2025-01-03,150.43553065073638,152.07622719806142,149.29290988290282,151.8613739013672,250700
2025-01-06,150.39646609155173,151.02148977014832,147.89637137716537,149.34173583984375,369000
2025-01-07,152.2715539340709,152.40827741317517,149.02924790028047,149.83981323242188,361200
2025-01-08,149.31242715408106,150.65036486716312,148.53114389248458,150.54293823242188,228600
2025-01-10,149.1463999140004,150.68943018558076,149.0096764672395,149.85931396484375,350800
2025-01-13,149.35150422383165,151.08009124557495,149.35150422383165,150.28904724121094,349300
2025-01-14,151.18751987696325,151.8125435961652,149.88863943358058,150.99220275878906,196900
2025-01-15,152.4668768473283,153.24816028689213,150.56250870833918,151.91998291015625,206100
2025-01-16,152.24223989964935,153.49228725350105,151.67580986403843,152.7500762939453,346300
2025-01-17,153.29695885699005,154.2540230320317,152.03713605455528,152.4375457763672,231900
2025-01-21,153.05282926731795,156.5099884289423,153.05282926731795,156.09005737304688,270900
2025-01-22,155.6114801759999,156.98849010418607,154.63487992651818,155.34780883789062,280000
2025-01-23,154.75208846096064,156.07048991099873,154.03915952023607,155.8849334716797,149800
2025-01-24,155.91424200320077,156.71506145375167,153.54111027377883,154.59584045410156,329600
2025-01-27,154.54699783386062,155.20131824817142,152.98443138953712,154.75209045410156,317000
2025-01-28,153.88294176224863,156.59788985115384,153.88294176224863,154.71304321289062,204300
2025-01-29,155.0646061385479,155.10367849846844,152.95514575501196,153.43368530273438,265800
2025-01-30,154.12706586283983,154.96692781170574,152.9160761312112,154.4298095703125,274200
2025-01-31,154.20518277543422,155.66032259995123,153.09185901964062,153.4727325439453,834100
2025-02-03,150.96288932286944,153.0821103704106,150.53318276913035,152.3301239013672,364600
2025-02-04,152.43756037769683,154.75211357303183,152.43756037769683,154.0098876953125,302400
2025-02-05,155.01866189479728,156.3702319730873,154.52896432375118,155.05784606933594,262600
2025-02-06,156.54654418662219,156.54654418662219,152.1686459155799,153.2263946533203,446600
2025-02-07,154.37226642227148,154.64649588233073,139.11328743464438,140.22979736328125,1221500
2025-02-10,141.2875312819042,141.62053697254157,137.99676315893876,140.32772827148438,621900
2025-02-11,139.33856189367694,140.12208105720353,137.36996794046337,139.35813903808594,377300
2025-02-12,138.06533442672804,140.53341437012955,137.04675510972507,138.78028869628906,423500
2025-02-13,139.80865498326042,140.8174307728779,138.54524183950096,139.8282470703125,665900
2025-02-14,140.72929960574803,142.31591505799216,139.7792850599418,141.80662536621094,512800
2025-02-18,141.806629148029,144.25511722944964,140.93496798881864,143.87315368652344,489600
2025-02-19,143.12878909814165,144.45097836650277,142.60971092774975,144.01023864746094,331000
2025-02-20,143.94170202111488,144.3824268363581,142.91333415595835,143.6576690673828,283100
2025-02-21,144.0004768600077,144.3530597341893,142.20818182828341,143.32469177246094,451900
2025-02-24,143.16798872554835,144.2551180375646,141.38549716336897,142.6097412109375,353300
2025-02-25,142.8741632870377,145.27367831527678,142.7174564829414,144.6664581298828,336700
2025-02-26,143.6282730672493,146.10614126129204,143.59889241233037,143.6184844970703,735600
2025-02-27,143.21694635144803,144.14736874046284,142.3648773665291,142.6293182373047,262800
2025-02-28,143.14838730085012,143.9221028321513,141.64991403633834,143.72622680664062,348700
2025-03-03,143.9417092483485,145.7731734330009,142.6880846270143,143.5695343017578,394100
2025-03-04,142.54117057614394,144.90151659055175,142.14941847460233,142.9329376220703,490100
2025-03-05,143.0406700510276,145.78297956351986,143.0406700510276,145.3814239501953,445100
2025-03-06,144.5195432997619,148.37836251128888,144.02984573371802,148.0355682373047,471700
2025-03-07,147.40874233764586,150.20002418408012,146.10614513893535,149.63197326660156,480200
2025-03-10,148.93662196596816,150.82684736023063,147.14432711634848,147.467529296875,391100
2025-03-11,147.24225796213827,147.45772608292995,144.23552273099082,144.84274291992188,304000
2025-03-12,145.18554224213253,145.18554224213253,142.56075547219578,143.0210723876953,299700
2025-03-13,143.39324790721705,144.16696350239528,140.79784178568258,141.77723693847656,238400
2025-03-14,142.23754924682325,143.86334873443155,141.5617642221919,143.63809204101562,223600
2025-03-17,143.49116498279625,144.9504690034165,142.85456417100727,144.79376220703125,225200
2025-03-18,144.35305965504074,144.49017438690367,142.77623276642447,143.2855224609375,219900
2025-03-19,143.32468002289772,144.42161273286254,142.4726110403041,143.9514923095703,279600
2025-03-20,143.1190055816075,144.38241863949617,140.76844845978337,142.20816040039062,332800
2025-03-21,141.03288741960213,142.46281077035695,139.4266801328764,141.83599853515625,601900
2025-03-24,142.7468386396778,145.1267616063011,141.92415032610805,144.94068908691406,463800
2025-03-25,145.43039772394542,146.15514060303397,142.92313347424803,144.17677307128906,325200
2025-03-26,144.02003557814166,145.63603132614415,143.28548933916207,145.49891662597656,630400
2025-03-27,145.22471455574868,146.80154137661276,144.0004705937233,146.27267456054688,312700
2025-03-28,146.2138845778836,146.90926165859608,142.7566211490686,143.9025115966797,239800
2025-03-31,143.5597178840155,146.0179939025075,143.08961247829677,145.3226318359375,372500
2025-04-01,145.81233341659282,146.93863169683007,144.3432409061711,146.02780151367188,240000
2025-04-02,144.950476293581,148.0159877703709,144.950476293581,147.4283447265625,247600
2025-04-03,143.73601082079833,146.95822887417515,143.4422042640377,145.60665893554688,352900
2025-04-04,142.22778665727026,144.91133515916854,137.15451123234206,137.2916259765625,531600
2025-04-07,133.5306985896499,139.1915999801272,128.15383009223805,131.87551879882812,629900
2025-04-08,134.5493112573588,136.43953673434598,128.57499483049722,130.9059600830078,473800
2025-04-09,130.43581304578677,141.44421772943244,128.61415277452573,140.78802490234375,491800
2025-04-10,137.11532993446937,140.4158870228316,134.7354067381973,137.8596649169922,309000
2025-04-11,137.96737957378522,141.7282680233526,136.86067330008663,141.140625,203000
2025-04-14,142.79579899814664,143.38342705213157,140.82720541468416,142.78599548339844,249300
2025-04-15,143.0896488919898,143.52057023933776,140.807656215774,140.97415161132812,250700
2025-04-16,141.09166473999363,142.81540979066028,139.63237551205373,142.01229858398438,307700
2025-04-17,142.40405194984112,142.75663480933545,137.8107011490633,140.8664093017578,390600
2025-04-21,140.347331860725,141.08187824351555,138.19266546008294,139.6421661376953,291600
2025-04-22,141.52257641333196,143.79477996918828,140.63132338352375,143.01126098632812,217800
2025-04-23,144.823151790697,146.24328667195422,144.1865509396658,144.99945068359375,537000
2025-04-24,144.88190918887037,148.86805439769142,142.4628170537404,148.3391876220703,424500
2025-04-25,147.74177325388501,149.8474669754594,144.52935816394884,145.9886474609375,220500
2025-04-28,146.71339348881767,147.91804531450325,145.22470870652703,146.61544799804688,235200
2025-04-29,146.67419752698908,148.84845573678555,145.93965123839249,147.2030792236328,359900
2025-04-30,145.9984330116698,146.89947469973708,144.17675754933848,146.86029052734375,556200
2025-05-01,145.8288159699916,147.87209121737254,144.36513448698346,145.6618194580078,445300
2025-05-02,150.28867188742916,150.29848992197137,145.18047592473235,149.31614685058594,431600
2025-05-05,148.7562082163406,150.51461075676426,148.21593150363898,148.80532836914062,267600
2025-05-06,147.59706562017445,149.35545335071032,146.7817189664437,148.25523376464844,312000
2025-05-07,149.19827245283236,150.44583737765655,147.9605105733144,148.7169189453125,318400
2025-05-08,149.1098443499113,151.84077180787722,148.5695676661293,150.65213012695312,302500
2025-05-09,151.1924328459138,151.5755460622504,150.23955882257493,150.61285400390625,231600
2025-05-12,153.03923920333585,153.82511675438303,150.98614553061785,152.77401733398438,352500
2025-05-13,153.55005471787953,153.55005471787953,150.49496693494288,150.9272003173828,339400
2025-05-14,150.90754450151144,150.90754450151144,148.3043412429943,149.7876739501953,350100
2025-05-15,149.65998239804614,152.7347062134107,149.65998239804614,152.2140655517578,278100
2025-05-16,152.4400115498671,154.3752288653149,151.86043265563208,154.23770141601562,278600
2025-05-19,153.5991717253283,155.5442069170815,153.5500515711728,155.28880310058594,185400
2025-05-20,157.43029958325823,157.43029958325823,155.12180229520027,155.73085021972656,388100
2025-05-21,154.09034056579173,154.8663850260189,153.07852836340334,153.6875762939453,319800
2025-05-22,153.5991755437167,154.4832783830283,152.81329802579143,153.88404846191406,278900
2025-05-23,152.3810559407016,153.4223372220158,151.53624028030902,153.18658447265625,260500
2025-05-27,154.25733338201647,155.642440728808,153.9233403306864,155.3673858642578,352800
2025-05-28,155.36739421063615,156.03538034918074,154.4832763933447,154.6208038330078,364400
2025-05-29,155.0432217337395,155.86838638532782,154.05106054476073,155.53439331054688,232100
2025-05-30,155.44598590152702,155.97644460873903,153.77599055020596,155.6031494140625,335100
2025-06-02,154.75831599595244,156.26131463804512,152.51857506289332,154.1394500732422,349600
2025-06-03,153.4223262867034,154.66008809008275,153.24551173728634,153.50091552734375,397800
2025-06-04,153.72689030243944,153.75635939881812,147.63635056847724,147.75424194335938,831900
2025-06-05,148.90357998413,150.632498572694,146.41825295522108,149.79751586914062,482400
2025-06-06,151.64429332994897,151.75235166609104,149.52244371290558,150.60301208496094,264700
2025-06-09,150.01363456854594,150.4753220758684,148.68746527135272,148.92323303222656,388400
2025-06-10,149.47332984142486,150.2984944487939,148.19628081228734,149.8367919921875,323500
2025-06-11,150.29849644880608,150.8780752886444,148.92322208489034,149.23756408691406,380800
2025-06-12,148.73658814675593,151.8899014382214,148.73658814675593,151.6246795654297,337200
2025-06-13,150.29848970697998,151.00577791651503,148.0685667411024,148.49098205566406,361200
2025-06-16,148.5695758002576,150.20025395390124,148.4516844355203,149.01162719726562,346200
2025-06-17,147.9998142251002,148.58921108822153,146.49683048956007,146.81117248535156,379700
2025-06-18,146.48700188455078,148.06857491409224,146.48700188455078,147.0567626953125,383200
2025-06-20,147.63631565892786,148.10785106822402,146.35928181283484,147.64614868164062,570500
2025-06-23,146.85047583401547,151.2218996436103,146.85047583401547,151.0745391845703,356500
2025-06-24,151.84077408220156,151.84077408220156,150.47530283808342,151.1531219482422,246600
2025-06-25,151.14331042765082,151.80147850793904,150.0725600428252,151.21206665039062,264700
2025-06-26,151.80147000378724,152.83293320202972,150.41636270870066,151.75234985351562,658200
2025-06-27,151.92917357890042,153.35356794604172,151.50675828997822,153.06869506835938,643100
2025-06-30,153.27499173184543,153.73669418509692,151.8800663373244,153.6679229736328,315500
2025-07-01,153.66793021902077,156.9784367941011,153.20624273336693,156.20237731933594,338300
2025-07-02,156.2122087454969,157.69554147577566,155.84873159459067,157.4892578125,293500
2025-07-03,157.76429959403765,158.51087491476963,156.99807321531225,158.19651794433594,235100
2025-07-07,158.1081326731942,159.50305819756994,157.71520139482857,158.1179656982422,313900
2025-07-08,158.05899691367227,159.70934109650693,157.02754866243734,157.22401428222656,342700
2025-07-09,157.10613360189868,157.18472285303153,155.30845881868973,156.90966796875,252800
2025-07-10,156.37920902223024,157.52854871323547,155.53439331054688,155.53439331054688,361600
2025-07-11,155.7603190354981,155.7603190354981,153.86440405350666,155.11196899414062,292000
2025-07-14,154.3654022940558,156.13362296539574,153.92335087356255,154.77798461914062,276600
2025-07-15,154.95480896302266,155.21021277775083,151.34961151557988,151.43801879882812,254200
2025-07-16,151.2022489800424,152.8624112264187,150.83878682765217,152.2435302734375,261900
2025-07-17,152.00777788286257,153.6482890740105,151.78182817574609,153.27499389648438,397700
2025-07-18,154.08052265083427,154.43416676966828,152.18459265589,153.6188201904297,243100
2025-07-21,153.65812006565358,153.90370586328876,152.49896229571195,152.7052459716797,205900
2025-07-22,153.35357548550758,156.54619042612177,152.48910879729814,156.3595428466797,449900
2025-07-23,157.24366585052525,158.99223535423732,156.3300789809644,158.8055877685547,450500
2025-07-24,158.55933544580745,161.82981080379918,157.4067724250192,159.40650939941406,431900
2025-07-25,159.63305506440543,160.65753702914088,158.3819926877325,158.5888671875,296300
2025-07-28,158.79573614749467,159.56410142477418,155.80108366056007,156.33302307128906,308500
2025-07-29,156.67779828906407,157.21959813532774,154.8750906357904,156.45123291015625,388200
2025-07-30,156.4315385130725,156.55958937255576,152.60940298667225,154.45150756835938,580700
2025-07-31,153.456563501654,155.0031544025075,152.86550639902828,154.79627990722656,679700
2025-08-01,154.6288158726098,155.76165777291718,138.9856590147076,139.24179077148438,1012300
2025-08-04,140.98539693056597,140.98539693056597,135.03548860220042,137.05491638183594,839000
2025-08-05,137.26176707147744,138.9659752764255,135.63638251685612,138.12864685058594,540800
2025-08-06,138.21731427393004,138.6605996470306,135.4984842918658,136.4737091064453,515300
2025-08-07,137.71491162131494,139.37970798596095,136.83818640949156,138.39462280273438,564000
2025-08-08,138.59162361799454,139.9313399406848,138.48326365692378,138.65072631835938,428700
2025-08-11,139.222090228796,139.5077583171329,137.12385398637957,137.7838592529297,349500
2025-08-12,138.12862654943748,138.98564573069308,137.15338694127408,137.399658203125,286100
2025-08-13,137.60653352632127,139.33043236992015,137.17309369779505,139.32057189941406,729900
2025-08-14,138.09910131689176,138.09910131689176,134.40503169053025,136.2766876220703,875800
2025-08-15,136.29638497225332,136.8775816161289,135.81368782683418,136.65101623535156,770500
2025-08-18,136.81847442171076,137.4883401327873,135.3014499206359,135.83338928222656,529500
2025-08-19,136.20773671589527,138.4241784468644,136.20773671589527,137.50804138183594,333100
2025-08-20,137.82326302031893,139.1432734762502,137.18294867232404,139.07431030273438,519200
2025-08-21,138.53254347475354,139.78359091939785,138.14836082862038,138.54238891601562,270400
2025-08-22,139.1531092440662,141.1922425197587,139.08416110654886,139.32057189941406,356500
2025-08-25,138.8674588166062,139.4979127296023,136.88744301904194,137.47848510742188,245800
2025-08-26,136.9957973337368,138.06953652648775,135.95159446141804,137.62625122070312,442900
2025-08-27,137.01548945470773,138.47342629437426,136.95638675089546,137.3602752685547,729100
2025-08-28,138.07937388667187,138.07937388667187,135.35068400580442,136.81846618652344,320800
2025-08-29,137.09429553325865,137.7838521169858,136.2865335440943,137.19281005859375,370700
2025-09-02,135.37040364310914,136.46384879424832,134.13904716800675,134.37547302246094,310600
2025-09-03,134.0504057475134,134.1489052560839,132.4348665011149,133.20323181152344,382300
2025-09-04,134.3163671782823,136.41458834161003,133.0258929963137,136.3948974609375,401800
2025-09-05,136.94654859153968,138.7197049562119,135.5772807659998,136.55250549316406,440800
2025-09-08,136.52295752982062,137.91193130257207,135.62652636886406,136.23728942871094,616100
2025-09-09,136.1978803964661,137.39968559639797,133.08502244977814,135.0059356689453,637100
2025-09-10,134.09967481585545,135.409840147903,132.8387667580311,134.21788024902344,685100
2025-09-11,134.71040519706986,136.2175843964125,133.84352538471833,135.05519104003906,477500
2025-09-12,134.58232620679007,135.00592063066784,133.20321303157323,133.2130584716797,261300
2025-09-15,133.9420357302436,134.13904976383114,132.62202517087903,132.8387451171875,298000
2025-09-16,132.77962562814162,133.40023410540573,132.0999294759084,133.19337463378906,474800
2025-09-17,133.4002281421939,135.02562764541634,132.18857762612365,132.64170837402344,377400
2025-09-18,132.88797027728828,133.48887277280454,132.0703628945154,132.4939422607422,254800
2025-09-19,132.65159546553494,133.08503542004235,131.35127560201278,132.43487548828125,877200
2025-09-22,132.11962230163485,132.92739938115005,130.691251766929,130.74050903320312,402100
2025-09-23,131.0261738005905,131.95215627068484,130.00169183165633,130.0509490966797,319700
2025-09-24,130.03125417731107,131.3217134615017,129.38109429893456,129.53871154785156,353300
2025-09-25,129.53870141670419,130.54349251095573,128.32705085173455,128.8688507080078,388700
2025-09-26,129.37125159771273,130.4548363867495,129.00677485417953,130.31692504882812,274400
2025-09-29,130.4252615354418,130.70108416159653,129.40077964275358,130.29721069335938,540600
2025-09-30,129.74557555443596,131.76498814664785,129.74557555443596,131.66648864746094,310400
2025-10-01,131.34141139667054,132.35604794922318,130.33662028487404,132.1393280029297,310100
2025-10-02,131.66648573117217,132.38559368725765,130.97692912730892,131.19363403320312,398500
2025-10-03,130.49423360821496,131.58767874762543,130.45482178395852,131.23304748535156,402000
2025-10-06,130.90797079558112,131.21334480064905,129.45004891757588,129.9130401611328,447100
2025-10-07,130.13960666531722,130.5336347337186,127.8739076939909,128.64227294921875,438800
2025-10-08,129.2234697553329,130.04109227782575,128.31719317203184,129.64706420898438,361300
2025-10-09,129.73571125193516,130.8587077217144,128.258083526899,128.66197204589844,554200
2025-10-10,128.98704858156654,130.04108184834632,127.95270619480443,128.97718811035156,426000
2025-10-13,129.03630601031335,130.37602238234368,128.2186835523413,128.2777862548828,311400
2025-10-14,128.10048555861533,129.10527677147402,127.11540026045824,127.86407470703125,337400
2025-10-15,127.86406447402499,128.44526114593418,125.95299674355027,126.18942260742188,438300
2025-10-16,126.5243419047704,127.56852978216413,125.94313774513942,127.23360443115234,352700
2025-10-17,127.23360344544018,128.15958590499872,126.92822944945955,127.4109115600586,339700
2025-10-20,127.67688307805489,128.1497197271898,126.11060134384137,128.06106567382812,240500
2025-10-21,128.66197064438,129.80467301345007,127.19418837559832,128.62257385253906,311600
2025-10-22,128.70137488096933,130.13960588126338,128.04136960320932,128.12017822265625,357500
2025-10-23,128.27838836608,130.0482160538345,128.19928781482736,129.29678344726562,378600
2025-10-24,129.27699821696652,129.41542040316887,127.09188897025071,127.42807006835938,489300
2025-10-27,127.68513804202082,128.43657062662018,127.00290900843953,127.32919311523438,521700
2025-10-28,127.29953156353623,127.65547648827675,126.03395296154486,126.6568603515625,413500
2025-10-29,125.84608767724626,126.06361040803851,122.02957306455488,122.9095458984375,651100
2025-10-30,122.6425973459498,124.10591981246533,121.65386309537952,122.95899200439453,702600
2025-10-31,113.99117408852003,116.76951495369767,102.06704129042897,114.70306396484375,2758200
2025-11-03,114.78215353846566,114.78215353846566,107.07003104374891,111.84561920166016,1661000
2025-11-04,113.07164922422088,114.69317278774453,111.26226373964292,112.8936767578125,1029100
2025-11-05,113.04198468525121,114.73271928879292,111.49955417930168,114.26801300048828,896900
2025-11-06,113.72420198995826,115.64234871180304,112.517952627641,114.84147644042969,880300
2025-11-07,114.92057976181373,115.60280123250854,113.39792818360942,114.91069030761719,697200
2025-11-10,114.68328006091402,115.45449154553131,112.71570107535919,115.06888580322266,514000
2025-11-11,115.64235215314066,118.16362740289492,115.64235215314066,116.93759155273438,484800
2025-11-12,117.0067994446968,118.32181771681981,116.58165098825971,116.8288345336914,547500
2025-11-13,116.96726664292429,120.50692958090833,116.96726664292429,118.84585571289062,679400
2025-11-14,118.42069332802943,119.33033453666947,117.05624283023447,117.27376556396484,521200
2025-11-17,117.1551218108406,118.14385608312521,116.24548809076526,117.99554443359375,820200
2025-11-18,118.31193671929118,118.75686408712447,116.72995598156568,117.96587371826172,817400
2025-11-19,118.16362983624596,118.16362983624596,116.38390520642318,116.67063903808594,598900
2025-11-20,116.67063483535937,118.26249749040201,116.04773500908134,117.24410247802734,507400
2025-11-21,116.79916971414367,120.86286792776397,116.79916971414367,120.1509780883789,509100
2025-11-24,119.48852930748254,121.02107037008182,119.08315219875638,120.10154724121094,740000
2025-11-25,121.0309595133857,122.68214385066395,121.0309595133857,122.04935455322266,543600
2025-11-26,121.63407548431789,123.11717675407199,121.63407548431789,122.41517639160156,538000
2025-11-28,122.23721179455744,124.65961521692697,122.23721179455744,123.34459686279297,315700
2025-12-01,123.47312464549341,123.55222519221778,121.64396787729149,121.89115142822266,536800
2025-12-02,122.37563109798752,122.46462110038372,119.4390968008952,120.2300796508789,325400
2025-12-03,120.08176988930819,122.86011822072538,120.04222715811682,120.68489837646484,543100
2025-12-04,120.82332005860296,122.6821452414219,120.55636513524256,120.64534759521484,708000
2025-12-05,120.61568357957054,122.11856379579517,119.26112254625717,120.53659057617188,537000
2025-12-08,119.55773823925648,120.72444490270962,117.95599365521366,118.71731567382812,496600
2025-12-09,118.25260671307173,118.49979025868578,114.06037589162156,114.41632080078125,640300
2025-12-10,114.86124902547321,116.47289058274676,113.83296456280685,115.84998321533203,734700
2025-12-11,116.6310870053096,117.33308739219939,115.84010415999195,116.68052673339844,389700
2025-12-12,117.18477675810965,120.26963024864754,116.32458281214376,120.10154724121094,656400
2025-12-15,120.11143594513233,121.08039125301917,119.12270172858626,120.95185852050781,588600
2025-12-16,121.2880193092629,122.45472593627359,118.17350515259987,121.44622039794922,644800
2025-12-17,120.73433285185864,123.19627887906455,118.72720364799784,122.2372055053711,567300
2025-12-18,122.2767604710972,122.72169540087228,120.65523693661119,121.23859405517578,457100
2025-12-19,121.95047437935206,122.92932668285609,119.89391294648267,120.02244567871094,1300400
2025-12-22,120.02244905131522,122.30642273678362,119.70605439556444,121.35723876953125,527800
2025-12-23,121.48577799610219,121.64397155088497,119.95323691666961,120.81343841552734,311700
2025-12-24,121.1495961120519,121.78238537460243,120.38827412360435,121.36711883544922,198000
2025-12-26,120.99141254975284,122.08890816765887,120.34873378036154,121.86149597167969,306000
2025-12-29,121.90103810595791,122.90954365167185,120.9419647432383,121.82193756103516,400200
2025-12-30,121.41656795360201,122.89966931682952,121.04084411378047,121.35723876953125,289800
2025-12-31,120.15097596397585,121.94058998507745,119.98289296138277,120.58602142333984,314300
2026-01-02,120.36849451795845,121.61430167163682,119.41931062963688,121.15948486328125,295100
2026-01-05,120.3882753233874,123.17650539661395,120.3882753233874,121.61430358886719,435700
2026-01-06,120.84309994356978,121.4659997987374,118.75687009500949,119.20179748535156,777200
2026-01-07,119.31055741898699,120.57613602320409,116.28503309681528,119.0831527709961,478500
2026-01-08,118.56900865138992,121.98014631699301,118.17351344536358,121.06062316894531,330000
2026-01-09,120.70467850674399,123.5621198728979,120.09166055886544,122.4547348022461,429100
2026-01-12,122.60303947816963,123.88839694168902,121.59453392415777,123.72030639648438,477300
2026-01-13,123.64121411549613,124.02681984811237,121.15948917361368,122.10867309570312,351900
2026-01-14,122.71180688445504,125.72744932780128,122.71180688445504,125.42093658447266,611700
2026-01-15,125.70766789113175,125.78676843900955,123.11718152395939,123.7005386352539,381000
2026-01-16,122.60304567683241,123.78952374665012,121.85160554277793,123.30504608154297,363400
2026-01-20,123.49290649216461,124.1158063396922,122.0493554255934,122.4250717163086,275100
2026-01-21,122.90954323158518,124.2047901340779,122.50416614126715,123.6016616821289,421000
2026-01-22,123.64121667891544,124.98589581561515,122.66236437418617,123.0677490234375,369700
2026-01-23,122.93921055756546,124.85735737798285,122.4745118058816,124.58051300048828,429500
2026-01-26,124.99577817123766,125.55935637440064,123.69064930373163,124.92656707763672,315400
2026-01-27,123.54233481410213,124.87713201390274,122.77112334791536,123.33470153808594,303100
2026-01-28,122.80079414026893,123.66099567657822,121.86149959484645,122.30642700195312,347800
2026-01-29,122.88978028418853,123.86862507511535,121.20892754069328,122.4547348022461,386000
2026-01-30,121.52533188143772,123.60167232496788,121.27814831569736,123.54234313964844,512700
2026-02-02,122.80078342815366,124.49152553193812,122.80078342815366,123.42369079589844,489100
2026-02-03,122.51406220907022,126.48877049938638,122.29653947125486,123.22594451904297,658700
2026-02-04,124.77433039015442,129.44927260782487,123.77184577350829,128.26812744140625,589400
2026-02-05,126.71975064755804,128.1192596554473,121.05225107397254,123.05722045898438,2144200
2026-02-06,126.58078326238557,134.97782150042084,126.58078326238557,133.31031799316406,1045700
2026-02-09,132.5857587104382,138.531180271334,132.2582131007177,137.43936157226562,1043400
2026-02-10,136.78427392403074,139.88104683101494,136.78427392403074,139.126708984375,622100
2026-02-11,137.99519392074043,139.50388475135443,137.56840169460276,138.9678955078125,584300
2026-02-12,139.11678651599092,140.94308767923593,138.3525134196047,139.46417236328125,572700
2026-02-13,139.46418324151318,141.8661694437224,139.3649366253535,141.51878356933594,471900
2026-02-17,138.2234773285034,142.55102629654255,138.2234773285034,140.59568786621094,614700
2026-02-18,140.41703714664675,142.04482998774162,139.791721402891,140.66517639160156,582000
2026-02-19,140.5956812663536,142.25326464590432,139.98030082414553,142.09445190429688,525500
2026-02-20,142.0547550361601,144.0597244456509,140.94309602664507,143.97039794921875,664500
2026-02-23,142.42200863639354,145.15154037209857,142.06468751245615,144.63540649414062,513500
2026-02-24,144.98279666295065,145.8165408414096,142.77931908758302,143.06715393066406,429800
2026-02-25,141.35004724560304,142.59074350649368,139.38477346379526,141.61802673339844,348900
2026-02-26,142.45176871915783,142.84878541602816,139.95052112226952,140.73463439941406,331300
2026-02-27,140.47658357934912,142.9381205686862,139.9505296087492,142.64036560058594,344600
2026-03-02,141.93563886113196,142.2830398395081,140.56590547180699,141.60809326171875,335000
2026-03-03,139.5931967078321,140.26814325067423,135.90088396317486,138.71974182128906,347300
2026-03-04,138.302888395737,138.47162126788456,134.9976717766612,136.02000427246094,389000
2026-03-05,134.9877396254558,135.32520533966746,133.40957777498073,133.72718811035156,452300
2026-03-06,133.0026313554941,133.0026313554941,130.02496050425168,131.096923828125,398500
2026-03-09,129.99519404049997,132.98278521657096,126.5807954705799,132.75450134277344,545700
2026-03-10,132.3574660154593,133.1316591702968,130.42196798314936,131.14654541015625,503100
2026-03-11,130.8190202738326,132.28800044532838,129.0721101988683,131.03738403320312,563800
2026-03-12,130.29295237048808,131.8016279987067,127.68252279954663,127.90088653564453,620600
2026-03-13,129.18127925269795,129.18127925269795,126.10436183607526,127.69244384765625,660600
2026-03-16,128.5162697582332,130.43191254892886,125.06217580985977,128.0894775390625,370700
2026-03-17,129.00262050471235,130.04480827067758,127.2855013216824,128.53611755371094,276700
2026-03-18,123.45423058912087,125.63786042046195,120.51626292882625,123.29542541503906,910500
2026-03-19,122.0944332187195,123.8909588849741,120.54603921873606,123.04728698730469,518500
2026-03-20,123.33512999241371,123.33512999241371,119.41452545613383,120.15894317626953,1481500
2026-03-23,122.5907105268858,125.39964092902298,122.07457667427936,123.21601867675781,455200
2026-03-24,122.24332284607306,124.28798782763778,121.95548040949986,123.2259521484375,405000
2026-03-25,124.50634549167631,125.62793211237509,122.78921864642815,124.88351440429688,337200
2026-03-26,124.28798636131239,126.3922023143744,123.19617519683187,123.76193237304688,442100
2026-03-27,123.01751427118627,123.28550132328671,120.85373975633635,121.08202362060547,381400
2026-03-30,121.64777727824665,123.01751071469691,120.19864504103799,122.44182586669922,562000
2026-03-31,123.46415851677581,126.01502957768723,122.67010992701152,125.08202362060547,557800
2026-04-01,126.39219982096562,127.68252689973865,125.38972274230011,125.80659484863281,380200
2026-04-02,124.2085781211438,126.14406117582702,123.32520302720033,125.07210540771484,297500
2026-04-06,123.66266876079281,125.25076596450165,123.66266876079281,125.07210540771484,461100
2026-04-07,124.38723692091199,126.22346576757812,123.8711106378232,124.67507934570312,376900
2026-04-08,130.4021481364575,131.68254004802253,127.19617800807119,131.03738403320312,645200
2026-04-09,130.24332882387228,131.45424955756675,126.39220287440348,130.42198181152344,424100
2026-04-10,131.2656579543429,131.71230555728022,129.87608426848973,130.521240234375,407400
2026-04-13,129.82646170678544,131.43439923843442,126.63042687940094,131.126708984375,396300
2026-04-14,130.2532453341348,131.73216065356567,129.99518597737963,130.03488159179688,315500
2026-04-15,129.83638260646234,130.05474636457114,127.64284005257605,128.6850128173828,407100
2026-04-16,125.95547520842267,129.35994576168224,125.95547520842267,127.33512115478516,393800
2026-04-17,128.6849981610624,131.31528307681364,128.6849981610624,129.65771484375,401100
2026-04-20,129.59817078840075,131.00759986778516,128.69494031122633,129.945556640625,403600
2026-04-21,129.72718762909471,131.2656538985368,125.74703979492188,125.74703979492188,310200
2026-04-22,126.33265459801167,126.33265459801167,122.04480863207884,123.62297821044922,458900
2026-04-23,124.44679072012924,126.49146323670142,123.51379231359721,124.01007080078125,440800
2026-04-24,123.48401687155638,123.48401687155638,121.65770810014067,123.1564712524414,440900
2026-04-27,123.11676900112164,125.29047121573323,122.62049050993973,123.8016357421875,359700
2026-04-28,125.18128618602746,125.70734016180099,122.79914797388655,124.8338851928711,354300
2026-04-29,124.20857785922294,124.96292327213307,121.87607050853111,121.9852523803711,448400
2026-04-30,122.51130595027864,125.14158341040145,120.97283963229869,122.75944519042969,764800
2026-05-01,126.26316859263083,127.5237125861033,117.0224658192811,118.13412475585938,989400
2026-05-04,117.79666211505766,120.84381172589876,116.58574139374336,119.7023696899414,739600
2026-05-05,120.00014032911528,122.78922301811379,119.92073395333378,121.1217269897461,628600
2026-05-06,122.74597925597982,125.94466800462597,121.24129756714204,122.19791412353516,917000
2026-05-07,122.5068295340525,126.02439054042098,122.13813047351475,124.66918182373047,749700
2026-05-08,124.78875603965518,125.4165335007669,119.9658058031768,120.56369018554688,794900
2026-05-11,120.79288554794945,120.79288554794945,119.0191585502766,119.53732299804688,706100
2026-05-12,120.02559365453983,120.43415267647454,116.72725880994862,117.6340560913086,696600
2026-05-13,117.58423293808002,118.33159035082205,116.01976505817387,117.46465301513672,679500
2026-05-14,118.31166263789773,119.73662439056804,116.62761485678391,117.57426452636719,531000
2026-05-15,117.49455009110837,117.5045093824967,114.06666843041747,114.26596069335938,447000
2026-05-18,115.19268785792543,116.90662874327987,114.76420263658683,115.40194702148438,433100
2026-05-19,115.48166685737739,115.63113986049136,112.05378509001822,113.20970153808594,575800
2026-05-20,113.66807993613209,115.04321484042606,111.15696237122292,114.85388946533203,562600
2026-05-21,116.08951407739181,116.08951407739181,112.37265332877841,115.1030044555664,345600
2026-05-22,115.39198749681162,116.38846404651633,114.30582410432685,115.82047271728516,405800
2026-05-26,115.79056648170686,116.55785764558959,114.96349676302546,115.96993255615234,344500
2026-05-27,116.52796630163347,117.69384200162881,114.32575411191587,114.89374542236328,464000
2026-05-28,114.40547144179769,115.93007936247552,112.95061657623215,115.58131408691406,510100
2026-05-29,114.65458561775299,116.84683851674723,113.34920381323532,115.44180297851562,559600
2026-06-01,114.28589767180515,114.72434218302038,111.63526640610465,111.9840316772461,706800
2026-06-02,111.5555436879482,112.65167394505289,110.84804626905223,111.78473663330078,452400
2026-06-03,111.29646253608045,113.61824699938008,111.29646253608045,112.13349914550781,372600
2026-06-04,114.54497230632394,115.35212345281656,111.14699134502068,112.15343475341797,337600
2026-06-05,112.69152600064275,114.18624078068318,111.58544405772433,112.96057891845703,466300
2026-06-08,111.86445781905672,112.24311616501637,110.55906839000053,111.54558563232422,422200
2026-06-09,112.88085932662787,115.74074968498803,112.27300803930216,115.49163055419922,444400
2026-06-10,115.74074928767203,116.13934141606836,112.97054577921195,114.26596069335938,496800
2026-06-11,114.70441351982215,116.59772043978674,113.85740999319688,116.16923522949219,395200
2026-06-12,117.48458764205596,118.05257897569324,115.96993901734801,117.30522155761719,342600
2026-06-15,118.28175862932584,120.31457162088154,117.14577601676713,117.66394805908203,576100
2026-06-16,118.08246565966249,120.62348378448296,113.36912845320511,120.22489166259766,474700
2026-06-17,121.19147655168894,121.918900150595,119.03908362900873,119.56721496582031,680500
2026-06-18,120.03556323646836,122.1182031608104,118.69032142639777,119.89605712890625,750600
2026-06-22,119.13873446752551,120.58363003359555,118.46113010611298,119.57718658447266,468400
2026-06-23,119.93591657137902,122.14809569936509,118.6604278207416,120.1850357055664,514100
2026-06-24,121.55021059109053,124.60939323702425,121.34094382937874,123.84210205078125,404900
2026-06-25,125.28699706013307,127.68850153642342,124.45991971828299,125.98452758789062,363500
2026-06-26,125.49625757990486,126.67210019838983,124.3204149614199,125.53611755371094,727400
2026-06-29,125.16742108368359,125.60587320209562,123.48337326752176,124.84854888916016,446600
2026-06-30,124.16097333332938,125.86494727656601,123.5033027809896,124.75885772705078,329300
2026-07-01,124.67914609082169,126.39307933521575,123.66273577346423,124.80868530273438,405600
2026-07-02,125.82508774888942,127.77818082996899,124.96812492977865,126.5325927734375,468400
2026-07-06,125.98452783897301,126.6023460237271,123.74245564919634,125.56600952148438,431400
2026-07-07,126.18381913439254,128.26645901687073,125.71548155556971,127.2400894165039,392700
2026-07-08,126.00445175211411,126.26353777363065,122.60647080352626,123.77234649658203,537700
2026-07-09,124.02146439127118,125.03787467960888,123.34386006655016,124.0114974975586,302100
2026-07-10,124.55956853594634,126.53259544666133,123.93179104742975,125.08769989013672,385200
2026-07-13,125.64571994715708,126.72191640641843,123.96167980892794,124.449951171875,391600
2026-07-14,127.96751666781715,128.95403392567474,127.5091383673285,127.82801055908203,739900
2026-07-15,129.25298235497795,130.3092450844948,127.99741214779503,128.65509033203125,466800
2026-07-16,129.56187796196684,134.6040465870392,129.56187796196684,134.27520751953125,579300
2026-07-17,135.351401437915,136.16850424088722,130.24944675099272,132.1427459716797,530800
2026-07-20,131.9135687694055,131.9135687694055,129.2928306127641,129.4522705078125,422900
2026-07-21,130.07008242817932,130.59821378154385,127.46927803301472,128.45579528808594,328800
2026-07-22,129.35261865201468,130.02025611657908,128.02730301458666,128.71487426757812,309900
2026-07-23,128.39600579528673,129.36258923692642,127.71839385448645,128.54547119140625,382800
2026-07-24,129.13338680160044,132.26232242316664,129.13338680160044,131.8936309814453,335900
2026-07-27,132.72071171310446,133.60757521827134,132.19258036761323,132.9000701904297,411200
2026-07-28,134.9030016293852,137.54365843276426,134.3549364800917,137.32443237304688,593100
2026-07-29,135.52081464440568,136.11870667337666,134.0759266469227,135.75,580000
2026-07-30,136.39999389648438,136.39999389648438,133.11000061035156,133.8699951171875,627000
2026-07-31,137.4600067138672,139.57000732421875,132.1699981689453,133.9600067138672,886500
2026-08-03,137.22999572753906,138.4600067138672,134.52999877929688,136.77000427246094,520088
