Date,Open,High,Low,Close,Volume
2023-09-25,117.34077068831786,119.39921139699219,116.84059192021189,119.3126449584961,258800.0
2023-09-26,118.82206477761558,119.48577007673056,118.53350268046277,118.88939666748047,547000.0
2023-09-27,119.31263264936807,119.70700305954179,118.18722503326468,118.81244659423828,362400.0
2023-09-28,119.13949993050126,120.85166013877925,118.5623683479597,120.68814086914062,219300.0
2023-09-29,121.66927149003342,121.99631738853884,120.03406401338636,120.2745361328125,330900.0
2023-10-02,119.78395548707734,120.69775382607703,119.26453489555266,120.28414154052734,244100.0
2023-10-03,119.29339878482428,120.53423572898005,117.82171067436374,118.1872329711914,236300.0
2023-10-04,118.84133024310002,119.90902709333459,117.6678250679862,119.49541473388672,208200.0
2023-10-05,119.23569473519102,120.16872773211533,118.11990791789228,119.03369903564453,466700.0
2023-10-06,118.8990326896935,121.86165089685026,118.6874160550928,121.59232330322266,491700.0
2023-10-09,121.02480176411956,122.3714470315645,120.89975891033677,122.10211944580078,275700.0
2023-10-10,122.3906804082069,123.70847018445957,121.68850597179858,121.71736145019531,322000.0
2023-10-11,122.66963195800781,122.83315123204267,121.82317277009818,122.66963195800781,212900.0
2023-10-12,122.37145501488276,122.54459523683002,120.29377235151563,120.64005279541016,189300.0
2023-10-13,121.19793811935457,121.842401584592,120.6208065484162,121.16908264160156,324900.0
2023-10-16,122.50610354279256,122.57343543523135,121.36145403270736,121.88087463378906,275200.0
2023-10-17,121.20755913507936,123.44875352595633,121.20755913507936,122.62153625488281,314400.0
2023-10-18,122.03478544306672,122.80429176930639,121.46726746403726,121.94821166992188,287300.0
2023-10-19,121.27489954662221,122.61192392718466,120.61119415676508,120.93824005126953,443900.0
2023-10-20,121.13059353171171,121.65963503049854,117.28304034380837,117.5619888305664,446500.0
2023-10-23,117.08105478916937,118.46617640474612,116.59048966054829,116.86943817138672,379000.0
2023-10-24,117.47543620540878,119.05293270920211,117.08106574877378,118.63932037353516,312100.0
2023-10-25,118.15679566085011,119.45967480363846,117.63564253111399,118.09889221191406,431300.0
2023-10-26,117.02761412299786,121.0134603739244,117.02761412299786,119.12187194824219,576000.0
2023-10-27,119.16046741363326,119.51754841038496,116.1590166748117,116.94074249267578,364000.0
2023-10-30,117.66457150071054,118.0506115995379,116.63191847013125,117.90584564208984,283100.0
2023-10-31,118.23397832287583,118.60071235470951,117.577712385893,118.00234985351562,422900.0
2023-11-01,117.84794906764095,119.12187631379118,117.36540075677947,118.63932800292969,360500.0
2023-11-02,119.40175264455395,119.95185741255717,118.68758322153812,119.26663970947266,384300.0
2023-11-03,120.08696643881918,121.57321603943892,120.08696643881918,120.974853515625,278000.0
2023-11-06,120.89764432950582,121.34159523213705,120.39579735185238,120.82044219970703,173500.0
2023-11-07,120.27033814314946,120.62741916445184,119.8360402653971,120.2027816772461,205000.0
2023-11-08,120.5212478211661,121.10995727302534,120.06765865285827,120.75287628173828,175800.0
2023-11-09,121.30299122840282,121.30299122840282,119.73953212154,120.0483627319336,118600.0
2023-11-10,119.90358602094061,121.39948852773999,119.56580372159614,121.3319320678711,195600.0
2023-11-13,121.01346298027089,121.10032550372696,120.02906768075303,120.18347930908203,183100.0
2023-11-14,121.55390364196714,123.39724152783667,120.93624245875796,123.38758850097656,267400.0
2023-11-15,123.35865603473404,124.30445401086837,122.90505942184835,123.25249481201172,388600.0
2023-11-16,123.19457641995044,124.13071389102679,122.41284320538445,123.09806823730469,217000.0
2023-11-17,124.07281379686883,124.57466814111162,123.15597499237893,123.46480560302734,162700.0
2023-11-20,123.00154326553826,123.19456697914006,122.01714809702534,122.87608337402344,213900.0
2023-11-21,123.01121297209009,123.8218979529415,122.76028579193338,123.44551086425781,160600.0
2023-11-22,123.96664452975432,124.69046691672392,122.91469286164748,124.08246612548828,174800.0
2023-11-24,124.46850623760841,124.46850623760841,123.6288769312162,124.04386138916016,65900.0
2023-11-27,123.3586396115106,123.82188919108859,122.42249478837549,122.5672607421875,367500.0
2023-11-28,122.56726798434931,122.5769210120011,121.1099700592446,121.22578430175781,218000.0
2023-11-29,121.25472870985266,121.98820414200175,120.55985802288006,120.99415588378906,331800.0
2023-11-30,121.07136390507863,122.69272646591232,120.45370267838986,122.46110534667969,301000.0
2023-12-01,122.00750584736005,124.05350585054758,122.00750584736005,123.62887573242188,218300.0
2023-12-04,123.00154595197841,124.38164160429274,122.4610942682931,123.93769073486328,192000.0
2023-12-05,123.77362656816942,124.19827138588248,121.48634520426313,121.5925064086914,178000.0
2023-12-06,121.9785500946843,122.85679147312398,121.48634880167852,121.9592514038086,179500.0
2023-12-07,121.83378385096688,122.67342048254547,121.59250971853534,122.07505798339844,254000.0
2023-12-08,121.94959163804015,123.04980103471416,121.23542230546796,122.87608337402344,265800.0
2023-12-11,122.81819302140134,123.22353181848027,121.93029857047753,123.11737060546875,338000.0
2023-12-12,123.19457459310557,123.6288724532248,122.2584297728089,123.03050994873047,210300.0
2023-12-13,122.74097102242494,124.48780066384826,122.74097102242494,124.10175323486328,425000.0
2023-12-14,124.57467068526118,125.47220345317041,122.45145375097674,122.95330810546875,412900.0
2023-12-15,122.72168474321455,124.09212012074336,121.57321745592215,121.58287048339844,713000.0
2023-12-18,122.28738762368339,122.76993591705903,121.48635568953519,122.61552429199219,240500.0
2023-12-19,123.25245809022569,123.65780416671647,121.63109587356571,121.8241195678711,659100.0
2023-12-20,121.62147774620003,122.50937226857559,121.08102597326958,121.18718719482422,346400.0
2023-12-21,121.83378081634912,121.83378081634912,120.49229726249135,121.51530456542969,421900.0
2023-12-22,121.98821446560005,122.60587571449095,121.71798858959814,121.86274719238281,312200.0
2023-12-26,121.73729559795223,122.44181941974175,121.2064894744736,121.43811798095703,274700.0
2023-12-27,121.71799552312824,122.05577788737202,120.66603631665096,120.90731048583984,283100.0
2023-12-28,120.61777069727657,121.40914957794178,120.05801292816882,120.83008575439453,343600.0
2023-12-29,120.82044581458585,120.98451046958296,119.2473336428409,119.30524444580078,313500.0
2024-01-02,118.33049161771078,119.76848345240212,118.02166100831862,118.591064453125,313100.0
2024-01-03,120.78182769015574,122.81818188143322,118.85163470226065,120.9844970703125,531700.0
2024-01-04,120.8107843913824,121.5249537647008,119.79743008568695,119.88429260253906,353300.0
2024-01-05,119.45965144487354,120.02906224611816,118.69722427618132,119.864990234375,423000.0
2024-01-08,119.73953974409099,120.7914989097474,118.0988784025131,120.009765625,352400.0
2024-01-09,119.39209643843853,120.28963654792885,118.6779270344352,120.27998352050781,250300.0
2024-01-10,120.11591846241205,121.04241028792013,119.89395037419895,120.82044219970703,279600.0
2024-01-11,121.00380927134914,122.53831669687723,120.57917177350777,122.41284942626953,323100.0
2024-01-12,123.4261986038641,123.50340809589281,121.52495720049569,122.01715850830078,231700.0
2024-01-16,121.48634817990717,122.39354127156845,121.12926717726768,122.3838882446289,257500.0
2024-01-17,121.54426685222283,122.8278397204519,121.49600907750106,122.2680892944336,336900.0
2024-01-18,122.876100447986,125.47220532952528,121.90135080738276,124.63257598876953,444200.0
2024-01-19,125.18269023740162,126.87160933829033,124.0535142223177,126.2346420288086,418000.0
2024-01-22,126.33113669376287,127.20937811767521,126.00300739017096,126.61102294921875,266200.0
2024-01-23,127.1997241248171,127.24798189599859,125.78103106406539,127.22867584228516,217800.0
2024-01-24,127.50852710927309,127.67259172427904,125.98367308449778,126.21530151367188,294400.0
2024-01-25,127.4216965566274,127.75948624024079,125.82929313663216,126.6689224243164,332300.0
2024-01-26,127.08389676698607,127.9621380935772,126.81367093206627,127.10320281982422,219900.0
2024-01-29,126.47588991643843,127.96213193699042,125.93543827260136,127.63400268554688,187800.0
2024-01-30,127.42168029315333,128.4446801513025,127.0356476121848,127.63400268554688,228400.0
2024-01-31,128.14711126677335,128.53435928082044,125.03952535355248,125.73655700683594,537500.0
2024-02-01,126.29805168978267,126.9273093818835,125.47516261057311,126.3367691040039,298800.0
2024-02-02,125.81397558849356,126.54004881730712,124.58448745154325,125.94950866699219,344800.0
2024-02-05,125.01047371963757,127.25645293560962,123.96492632234019,126.48197174072266,319500.0
2024-02-06,126.31741327577761,127.20806159525097,125.17506481341027,126.94668579101562,369700.0
2024-02-07,127.21774880570729,128.19552236848855,125.24282081394894,127.59530639648438,393000.0
2024-02-08,127.4403846693048,130.53829445292226,127.34356898744214,127.90506744384766,620700.0
2024-02-09,127.89543870730267,134.76894102535888,127.3145739470146,134.52691650390625,650900.0
2024-02-12,134.72051017566284,135.98871608812559,133.12313974347538,133.21995544433594,491300.0
2024-02-13,132.3293155563288,132.94889767408426,130.67386150701182,131.5935516357422,275900.0
2024-02-14,131.91303358615116,133.07476305152232,130.85781026804267,132.79400634765625,335000.0
2024-02-15,132.7939713432345,133.4135533345092,130.27692596643098,130.73191833496094,471400.0
2024-02-16,131.05138100848956,133.59748268821022,130.7319069946388,133.11343383789062,453900.0
2024-02-20,132.76494422449613,135.6692378984507,132.58100326162543,135.2335968017578,373000.0
2024-02-21,134.6430432067918,135.6401827546635,134.5559179504535,135.53369140625,276300.0
2024-02-22,135.9887045298492,137.87649236016304,135.60147130332354,136.95680236816406,295700.0
2024-02-23,137.44086687732337,137.5183164858138,136.1145774154304,136.85032653808594,190300.0
2024-02-26,136.985826270642,137.52795862593183,136.30816082652976,137.39242553710938,199200.0
2024-02-27,137.39243933350093,137.64413944601768,135.3400767046714,135.83380126953125,244600.0
2024-02-28,135.194869665944,136.7341565973834,134.88508601058652,135.93063354492188,189600.0
2024-02-29,136.1436245676808,137.11172255417472,135.36914322408506,135.9790496826172,250600.0
2024-03-01,135.41752898322991,136.298486780481,135.10773058753682,135.81443786621094,151400.0
2024-03-04,136.20169440578695,137.5860672968912,136.07583695314057,137.43118286132812,260300.0
2024-03-05,137.73128791076408,138.64130227082694,137.21819722213309,137.9733123779297,190200.0
2024-03-06,138.37021994084103,139.05757592063267,137.93457885855102,138.50576782226562,184000.0
2024-03-07,139.89013059583016,140.5097125902881,139.25118250942043,140.03533935546875,250100.0
2024-03-08,140.09344450787563,140.44196032011527,138.40894895338388,138.52511596679688,185200.0
2024-03-11,138.23468763130884,138.8058765983286,137.45053072424915,138.18629455566406,226700.0
2024-03-12,138.24439416826982,138.2928020215548,136.9664977471601,137.86683654785156,242200.0
2024-03-13,138.43798895737592,138.43798895737592,136.4340193693208,136.6566925048828,336800.0
2024-03-14,136.85031074719467,137.10201086674357,135.88221291077477,136.43402099609375,235200.0
2024-03-15,135.57240492142637,137.86680667638342,135.28198740864667,136.5017852783203,599500.0
2024-03-18,136.43402821831805,136.79223448171572,134.49783244298447,134.8173065185547,299700.0
2024-03-19,134.4494497592499,135.84351318877248,134.4494497592499,135.05934143066406,253000.0
2024-03-20,135.17551943672254,135.6014848917867,134.70114613049162,135.50466918945312,220000.0
2024-03-21,135.83380611845956,137.08266060945118,134.85603261400937,136.6373291015625,255800.0
2024-03-22,137.47955153920302,137.90551689840717,136.55018600275653,137.0729522705078,276000.0
2024-03-25,136.69543011458305,139.45451523192946,136.66638835730595,138.3992919921875,316300.0
2024-03-26,138.27341558365592,139.70619624368913,138.0701085385698,138.63160705566406,314200.0
2024-03-27,139.08660656444317,140.5193871456138,139.08660656444317,140.04502868652344,218200.0
2024-03-28,140.1999450522203,140.71303575776633,139.06725750918295,139.2996063232422,247800.0
2024-04-01,139.20278768938965,139.20278768938965,137.58606600215256,137.75064086914062,204400.0
2024-04-02,137.31500593788894,137.31500593788894,135.91126690307195,136.14361572265625,202600.0
2024-04-03,136.18232831953642,136.6857433581489,135.40784705367142,136.38563537597656,258700.0
2024-04-04,137.3053243590496,138.1959726377349,136.47275958975655,137.22787475585938,403600.0
2024-04-05,136.86968595043953,138.20565100866335,136.45339617162944,137.20851135253906,288300.0
2024-04-08,137.15040168122644,137.83775755940698,135.91123778625203,136.02740478515625,312500.0
2024-04-09,135.94029261944223,136.59860681125565,134.91411130502746,135.83380126953125,242600.0
2024-04-10,134.54623575653343,135.74668241469655,134.03314507512525,134.9528350830078,200700.0
2024-04-11,134.8173099688125,135.57242515875745,134.03315302325444,134.69146728515625,265300.0
2024-04-12,133.76208470665995,134.51719988484666,131.62259662579817,132.82302856445312,299200.0
2024-04-15,134.18803080372464,135.349745158721,133.43291573437705,133.79110717773438,319600.0
2024-04-16,133.3941894593336,134.94315184926018,132.9779144955909,134.16867065429688,281700.0
2024-04-17,134.44943883100882,135.03028869809586,133.93634813434798,133.9847412109375,565400.0
2024-04-18,133.9750570093757,134.99156267697953,133.81048215225894,134.67208862304688,246600.0
2024-04-19,134.62369389699214,135.4562586960129,134.34295200090463,134.89476013183594,276600.0
2024-04-22,135.09803598219477,136.64698342744765,134.80760371996035,135.84347534179688,298800.0
2024-04-23,135.31104215956182,136.65669759538656,135.06901769432713,135.6789093017578,417200.0
2024-04-24,135.88281662716403,136.80520507967753,135.5818281146395,135.94107055664062,559200.0
2024-04-25,135.7760094089554,137.14503597865468,134.8827479436081,136.1061248779297,694400.0
2024-04-26,137.87323164710924,144.19403432783037,137.77613189586884,139.16458129882812,489500.0
2024-04-29,140.6889316606444,143.718268755578,140.17433562764535,142.1259307861328,676700.0
2024-04-30,141.50455876401378,141.85409715843193,139.87337465161463,140.18408203125,585100.0
2024-05-01,140.77634869572992,142.9318328954004,140.37826043918207,141.15501403808594,359600.0
2024-05-02,141.52398284049588,142.46579432024046,141.0676405847291,141.67933654785156,356500.0
2024-05-03,142.83474149980546,142.85416441513408,140.6307072933261,142.54345703125,303300.0
2024-05-06,143.46584874866832,144.74749451317692,142.88329461371845,144.70864868164062,260200.0
2024-05-07,144.00955843651997,146.00968872335923,144.00955843651997,145.36886596679688,392900.0
2024-05-08,145.36887962927,146.4854527186998,145.13584910988936,146.40777587890625,223500.0
2024-05-09,146.6116974972741,147.32047837661355,144.31057824435283,144.74749755859375,299100.0
2024-05-10,144.6212448665183,144.66979474057337,143.7862374049322,144.17462158203125,186300.0
2024-05-13,144.21345462568132,145.1358429843686,142.59198955369928,143.5726318359375,167500.0
2024-05-14,143.99016035248064,143.9998644024627,143.184279743667,143.60177612304688,137600.0
2024-05-15,143.66001677139636,144.02896319801914,142.50459798974526,142.99977111816406,211100.0
2024-05-16,143.0871700529018,143.60176615776547,142.17448569624776,143.25222778320312,235500.0
2024-05-17,143.5532250739488,143.86391760755848,142.85414835414977,143.37844848632812,169500.0
2024-05-20,143.30077614301211,144.09695263816212,142.7667571298435,143.86392211914062,163400.0
2024-05-21,143.64060931065208,144.35909414501361,142.81530585917272,144.27171325683594,280400.0
2024-05-22,143.7668346921676,144.50474243328088,143.18426581237048,144.4658966064453,283300.0
2024-05-23,144.3396862943476,144.62125187296155,143.27164827475897,143.427001953125,171700.0
2024-05-24,144.1649355408977,144.5047699213138,143.077489228118,143.78627014160156,162300.0
2024-05-28,143.32990795502417,143.48526163962768,141.58223085693479,142.4463653564453,318400.0
2024-05-29,141.41716447863772,142.4366527072403,140.31029535438608,140.63070678710938,229700.0
2024-05-30,140.91227152936236,142.7084983843772,140.78604481723752,141.89291381835938,328100.0
2024-05-31,141.8443808876884,143.5338189608347,141.6793231449918,143.39788818359375,358900.0
2024-06-03,144.18431769135844,144.18431769135844,142.02883377700786,143.8542022705078,266200.0
2024-06-04,143.3590315880983,144.07753125118836,142.43664318212836,143.8833465576172,287900.0
2024-06-05,143.4270158524189,143.89306211733856,142.8056158940781,143.62120056152344,229200.0
2024-06-06,143.7085664873753,143.7085664873753,141.17441703689698,141.71815490722656,197600.0
2024-06-07,141.53366068244839,142.07738368524713,141.2229533577973,141.32005310058594,179100.0
2024-06-10,140.62100939036216,141.5725248682501,139.80542469502964,141.35891723632812,125800.0
2024-06-11,140.6986800796317,141.50456068926422,140.15495697321543,141.2715301513672,147700.0
2024-06-12,141.99003776485912,142.05799574927036,139.883103202602,141.59194946289062,221300.0
2024-06-13,141.65020339677005,142.27160338372448,140.8054917248297,141.59194946289062,232400.0
2024-06-14,140.8734504649213,141.1550309006414,139.50442375003365,140.5433349609375,141500.0
2024-06-17,140.6598464606111,142.41724265904358,140.36857678213207,142.07742309570312,303800.0
2024-06-18,142.22303735719075,143.39787921333664,142.2133333077604,142.42694091796875,219900.0
2024-06-20,142.39782858641786,143.24254024927657,141.43659424170872,141.57252502441406,199900.0
2024-06-21,141.63076047927734,142.86385622851674,141.0870374193948,142.58229064941406,444100.0
2024-06-24,142.9415237902204,143.92216604419272,142.4075048141597,142.4560546875,182900.0
2024-06-25,142.52403514640127,142.53375401180762,140.30059282386082,140.65013122558594,194500.0
2024-06-26,140.05786957330074,140.58216981066397,138.80536550800005,139.5335693359375,192400.0
2024-06-27,139.68890380859375,139.69862267447957,138.13541124732973,139.68890380859375,377300.0
2024-06-28,139.60149156021046,140.12580647860236,136.0187272741163,136.71780395507812,435100.0
2024-07-01,137.27127014880173,137.36835509564582,134.36815911737452,134.5137939453125,306400.0
2024-07-02,134.4555328904598,136.41683242305885,133.75645612270853,136.31973266601562,259400.0
2024-07-03,136.78577507852356,137.29065226337735,136.48478661419202,137.1158905029297,143300.0
2024-07-05,136.89260200916505,137.32952129947634,135.66921021788147,136.80520629882812,207000.0
2024-07-08,137.53340696834337,138.35871046567937,137.38777214662196,137.39747619628906,249300.0
2024-07-09,136.766360792669,137.16444902591755,135.68861875591176,135.97018432617188,238400.0
2024-07-10,136.65956823532298,137.51399869592782,136.48480644947725,137.18386840820312,142000.0
2024-07-11,137.09649774945188,139.13547429525167,136.65957843687883,137.96063232421875,244500.0
2024-07-12,139.24228498373407,141.26183871311542,139.24228498373407,140.3879852294922,263900.0
2024-07-15,140.55303808812164,141.4560185081972,138.98012261389596,139.26168823242188,319900.0
2024-07-16,139.66946784903956,141.07732529464843,139.66946784903956,140.35882568359375,178800.0
2024-07-17,140.14523913079555,141.5336886876332,140.14523913079555,140.65013122558594,242300.0
2024-07-18,140.40738917518402,142.97066571318356,140.3976851256369,142.0288543701172,434200.0
2024-07-19,142.3298497313873,142.3298497313873,140.45594581987174,141.69874572753906,251200.0
2024-07-22,141.74729152284237,143.2716569904321,141.0287918281976,142.91241455078125,235700.0
2024-07-23,143.57265645199828,144.1940564353192,141.43659493529168,141.79583740234375,234500.0
2024-07-24,141.82498394212112,142.36870709384863,139.71803450615988,139.95106506347656,250600.0
2024-07-25,139.1134168154453,140.30167233708127,137.54531009340042,137.80828857421875,558100.0
2024-07-26,139.40563543189464,147.3532937123029,138.64593291142725,142.84378051757812,562800.0
2024-07-29,142.76584597383152,144.4897929937424,141.39253199421196,143.9541015625,390900.0
2024-07-30,143.5450338076538,144.05149220142636,141.62629393482098,141.9574432373047,411000.0
2024-07-31,142.68793548619507,144.97679227316166,141.62630185383244,143.1554412841797,280600.0
2024-08-01,143.05804117385702,145.64881403519908,141.64575972559882,143.20413208007812,335300.0
2024-08-02,142.76585813776398,143.1749275760007,140.0094955037422,141.89901733398438,213500.0
2024-08-05,139.69780574748174,139.69780574748174,135.85059153457982,137.0193634033203,448500.0
2024-08-06,137.65246713764915,142.28860227483594,137.43819054803106,141.15878295898438,476000.0
2024-08-07,142.21066611828329,143.42813984840885,139.73676603783363,139.86338806152344,353600.0
2024-08-08,140.70103177550166,142.35679332552462,140.70103177550166,141.77239990234375,268600.0
2024-08-09,141.62630065454624,141.62630065454624,139.73677887394297,140.20428466796875,263200.0
2024-08-12,140.22377593602033,140.42830322987103,139.05500395736158,139.56146240234375,221100.0
2024-08-13,139.77571975776996,141.5191504756012,139.37639966606926,140.61334228515625,212000.0
2024-08-14,140.37960449405662,141.04190311093822,139.75625849980418,140.15557861328125,115700.0
2024-08-15,141.22696922822865,143.50607675102486,141.22696922822865,143.18466186523438,277500.0
2024-08-16,142.30806341467064,143.01906387906809,141.8210739450238,142.90219116210938,250600.0
2024-08-19,142.51258014730718,143.8858789121829,142.12297972394026,143.14566040039062,191200.0
2024-08-20,143.15544136166255,144.45083532458932,143.15544136166255,144.25604248046875,387200.0
2024-08-21,144.31447092085256,145.6780504782827,143.6229541329459,145.4442901611328,267300.0
2024-08-22,145.67805355296156,146.48644308563473,144.8014634914536,145.11314392089844,200400.0
2024-08-23,145.76568825881577,146.6130451606969,145.5514117081752,146.525390625,221400.0
2024-08-26,146.75914391028522,148.69736740875544,146.23320180620857,146.252685546875,235500.0
2024-08-27,146.10658758715397,147.59677430031587,145.94101293699603,147.265625,208300.0
2024-08-28,147.00262825791697,148.01557463659083,147.00262825791697,147.5967559814453,249000.0
2024-08-29,148.5805139173331,148.93114698600922,147.27538549682706,148.31753540039062,187100.0
2024-08-30,148.23961278387767,149.447352191514,147.6941868777649,149.203857421875,178500.0
2024-09-03,148.15194689459446,148.41492538696468,145.83387210929124,146.13580322265625,362400.0
2024-09-04,145.7072750829975,146.97343598691867,145.7072750829975,146.807861328125,175800.0
2024-09-05,147.1487592794206,147.81105791158635,146.04815817755215,146.79812622070312,200600.0
2024-09-06,146.46697415286368,149.13566723576417,146.46697415286368,148.41493225097656,319100.0
2024-09-09,148.59998302653705,149.0772232245831,147.49938200179562,147.9571533203125,241500.0
2024-09-10,147.91819898327566,148.81425795867298,147.49939511007815,147.56756591796875,158100.0
2024-09-11,146.86629136229539,146.95396076989897,144.76250795288001,146.9149932861328,178000.0
2024-09-12,146.96367953188238,148.05453117311387,146.0676207034795,148.00584411621094,200400.0
2024-09-13,148.229880848657,149.02853597846607,147.94741858852652,148.31753540039062,138600.0
2024-09-16,149.0577507849576,149.18437282019818,148.11300475699895,149.00906372070312,182900.0
2024-09-17,149.99278031830573,151.52193462791402,147.91820009450953,149.0480194091797,259900.0
2024-09-18,149.75900813476628,151.4440025327287,148.73634205746214,149.08697509765625,214200.0
2024-09-19,150.98622094035395,154.67759462046783,150.98622094035395,152.81729125976562,412400.0
2024-09-20,152.2426587848195,152.2426587848195,150.4602753884125,151.8530731201172,663300.0
2024-09-23,152.1063064527266,152.82705629994214,150.71352354488388,151.9017791748047,315800.0
2024-09-24,152.1160493204721,152.99263943106746,151.96995839957702,152.55435180664062,246200.0
2024-09-25,153.2069113857245,153.76207173006424,151.81411358113382,153.0510711669922,284100.0
2024-09-26,153.8302359516064,154.9210876071616,153.59647565609922,154.2587890625,371600.0
2024-09-27,154.55100141706893,157.3463316298126,154.1419319653425,155.72952270507812,354300.0
2024-09-30,155.14509281013372,156.24569372550278,154.7944598108318,156.0216827392578,289800.0
2024-10-01,156.36259442762125,156.36259442762125,154.9113751149142,155.80743408203125,192200.0
2024-10-02,155.70031919221827,155.9438139979823,153.84976461310907,154.61920166015625,186900.0
2024-10-03,153.87898296337445,156.28471283580325,152.56410506616265,154.80426025390625,367000.0
2024-10-04,155.77820432469008,157.26839101232096,155.18407653760102,156.40155029296875,350500.0
2024-10-07,155.24251230852914,155.486007058675,153.89841653196711,154.56072998046875,223300.0
2024-10-08,154.16139329533596,154.8821430979149,153.01210522116568,154.54124450683594,205900.0
2024-10-09,154.22958607287964,155.8853474593437,154.00556019446944,155.54444885253906,152600.0
2024-10-10,153.93738118810276,155.2327750185027,153.93738118810276,155.07693481445312,168500.0
2024-10-11,156.75220088173344,157.70669625153667,156.1775567716702,157.34632873535156,194400.0
2024-10-14,160.696818031185,163.39472945404907,159.2066311881111,162.83956909179688,469700.0
2024-10-15,162.96617430440529,165.2452816100452,162.15776994657773,164.290771484375,397300.0
2024-10-16,164.31025487859057,164.79724438022347,161.6025944384509,161.71946716308594,330000.0
2024-10-17,162.63502251682706,163.94016577814568,162.18700046287847,163.52134704589844,238200.0
2024-10-18,164.69986730082573,164.69986730082573,163.414207789957,164.24209594726562,171500.0
2024-10-21,164.0862524476999,164.1057361900711,161.97271968352462,162.00193786621094,217900.0
2024-10-22,161.40781358966652,162.0408940440798,160.52148906409494,161.49546813964844,228500.0
2024-10-23,162.17724687078498,163.6089972685699,161.83636311905678,163.28758239746094,318100.0
2024-10-24,164.38140383544402,164.39116447584829,162.26216763017436,162.65281677246094,547300.0
2024-10-25,164.96734120598276,165.87558734575057,160.75819577884172,164.95758056640625,518900.0
2024-10-28,165.92439581087592,167.3990718969887,164.81107199246878,165.14312744140625,350000.0
2024-10-29,165.0747671080742,165.52400985615543,163.71729312603756,164.7524871826172,338100.0
2024-10-30,164.4107021299758,166.2174041358462,164.18607328299754,165.0747833251953,290300.0
2024-10-31,165.1333689439496,166.29552588082868,163.9321545452615,163.98098754882812,329900.0
2024-11-01,164.16654807832185,166.98892289403057,163.69776911458624,165.44589233398438,316300.0
2024-11-04,165.66072177477935,166.5787284860389,164.24463934900223,164.32276916503906,191800.0
2024-11-05,163.81495853194275,166.37364684373878,163.81495853194275,166.32481384277344,206200.0
2024-11-06,171.05156441416634,171.05156441416634,168.1120023975292,169.10813903808594,264100.0
2024-11-07,170.12376575088302,171.3542916404713,169.4792059898356,170.62184143066406,412300.0
2024-11-08,170.61209897781401,173.6786238548333,170.40702122427004,171.6472930908203,309200.0
2024-11-11,172.1942029189047,173.8641813863164,171.7840176058394,172.02816772460938,189100.0
2024-11-12,172.51645146428592,173.09265701480297,170.85623379576612,171.58868408203125,179800.0
2024-11-13,171.3933868408203,172.26256068514002,170.95391959849974,171.3933868408203,168400.0
2024-11-14,171.05155682058597,171.67658049046,169.8405818424337,170.02613830566406,198200.0
2024-11-15,168.92255840068168,169.69406609606892,162.28167324991088,162.5941925048828,620500.0
2024-11-18,162.4965371683572,163.89308346527008,160.4847427631967,162.78952026367188,384400.0
2024-11-19,162.52583437609178,163.74658485803732,162.31098109913023,162.99459838867188,287600.0
2024-11-20,163.09226951003035,164.9868767017905,161.773852987427,164.7817840576172,221800.0
2024-11-21,164.74270472490508,166.24666260945034,163.814937433016,165.9048614501953,205100.0
2024-11-22,166.1978542572136,168.04364337816776,166.1978542572136,167.49673461914062,241600.0
2024-11-25,168.0241100492806,169.94801412387145,167.7213662946961,168.4635772705078,270100.0
2024-11-26,168.81514749207574,168.81514749207574,167.1549297751935,168.0143280029297,140300.0
2024-11-27,168.62958510670097,169.81127811822287,167.50650063518984,167.71157836914062,167200.0
2024-11-29,168.5514742252474,169.43042360328997,168.06317398247072,168.91282653808594,117300.0
2024-12-02,168.93233680546206,169.05929962886407,166.84241249869427,168.7174835205078,170900.0
2024-12-03,169.39132382716835,169.39132382716835,167.0865464581629,168.3658905029297,160100.0
2024-12-04,167.86782016783718,168.84442043989435,167.02794333779852,168.5514373779297,173400.0
2024-12-05,167.98503908384095,168.40498502885572,166.5396745813458,167.09634399414062,245000.0
2024-12-06,167.58463897320985,168.61005749857284,166.85218865409922,167.14515686035156,209200.0
2024-12-09,167.5455809247015,169.41089147314173,166.24670045963933,166.79359436035156,301700.0
2024-12-10,166.72522539571543,167.36000970992765,164.25442751782737,166.91078186035156,287000.0
2024-12-11,167.85808411107303,170.02613822467129,167.73112128855698,168.27801513671875,418600.0
2024-12-12,167.6530150861591,168.56126134903442,166.78384119036537,167.62371826171875,178300.0
2024-12-13,166.91076951474722,166.99865996989303,165.8462787089003,166.21737670898438,153200.0
2024-12-16,166.15878101655767,166.93028872730167,163.66844717273165,163.70751953125,236100.0
2024-12-17,162.99458751218418,163.00436305250057,159.02959259568405,159.27374267578125,511900.0
2024-12-18,159.85971564038562,160.57262973216018,154.21496674015316,154.50794982910156,468600.0
2024-12-19,154.80091960788565,157.78932926379758,154.52747269585277,155.15249633789062,404700.0
2024-12-20,155.00601023435632,156.0412042310304,153.7852597851201,154.4786376953125,730200.0
2024-12-23,153.49226783435589,155.18178218605982,153.2871901156991,154.81068420410156,194900.0
2024-12-24,155.06460748481138,155.6896311333145,154.2247305600973,155.62127685546875,100500.0
2024-12-26,154.71303442348506,155.89472747069453,154.71303442348506,155.1329803466797,164500.0
2024-12-27,154.1270910423129,155.84590247939389,153.92199838988887,154.44935607910156,145000.0
2024-12-30,153.32624728896786,153.80478680118333,151.37304668656063,153.06256103515625,221700.0
2024-12-31,153.59971586271843,154.54701948074276,152.52544941905987,153.42393493652344,317100.0
2025-01-02,153.96104492700826,154.4102876614351,149.8593262852289,150.55271911621094,239400.0
2025-01-03,150.43553065073638,152.07622719806142,149.29290988290282,151.8613739013672,250700.0
2025-01-06,150.39645072499704,151.0214743397327,147.89635626605445,149.3417205810547,369000.0
2025-01-07,152.27152292122494,152.408246372483,149.02921754778856,149.83978271484375,361200.0
2025-01-08,149.3124725562804,150.6504106761961,148.53118905711509,150.54298400878906,228600.0
2025-01-10,149.14643028639964,150.68946087220502,149.00970681179618,149.85934448242188,350800.0
2025-01-13,149.3514738966303,151.08006056736804,149.3514738966303,150.2890167236328,349300.0
2025-01-14,151.18748931990888,151.81251291278505,149.88860913904762,150.99217224121094,196900.0
2025-01-15,152.4668462198905,153.24812950251066,150.5624784634495,151.91995239257812,206100.0
2025-01-16,152.24222469159,153.4922719205697,151.67579471256195,152.75006103515625,346300.0
2025-01-17,153.29697420180517,154.25403847264764,152.03715127326387,152.43756103515625,231900.0
2025-01-21,153.0528143054371,156.50997312910235,153.0528143054371,156.0900421142578,270900.0
2025-01-22,155.6115107453754,156.98852094407073,154.6349103040437,155.34783935546875,280000.0
2025-01-23,154.7521036088612,156.070505187951,154.03917459835165,155.88494873046875,149800.0
2025-01-24,155.91424200320077,156.71506145375167,153.54111027377883,154.59584045410156,329600.0
2025-01-27,154.54701307242723,155.201333551255,152.98444647403235,154.75210571289062,317000.0
2025-01-28,153.88292658532947,156.59787440646915,153.88292658532947,154.71302795410156,204300.0
2025-01-29,155.0646061385479,155.10367849846844,152.95514575501196,153.43368530273438,265800.0
2025-01-30,154.1270810917156,154.96694312356598,152.9160912404324,154.42982482910156,274200.0
2025-01-31,154.205198107046,155.66033807623802,153.0918742405619,153.47274780273438,834100.0
2025-02-03,150.96288932286944,153.0821103704106,150.53318276913035,152.3301239013672,364600.0
2025-02-04,152.43754527468874,154.7520982407055,152.43754527468874,154.00987243652344,302400.0
2025-02-05,155.01863138493115,156.37020119721305,154.52893391026447,155.0578155517578,262600.0
2025-02-06,156.54651300778121,156.54651300778121,152.16861560867,153.2263641357422,446600.0
2025-02-07,154.37224962460155,154.64647905482116,139.11327229734582,140.2297821044922,1221500.0
2025-02-10,141.2875312819042,141.62053697254157,137.99676315893876,140.32772827148438,621900.0
2025-02-11,139.33854663703144,140.1220657147679,137.3699528993658,139.35812377929688,377300.0
2025-02-12,138.06533442672804,140.53341437012955,137.04675510972507,138.78028869628906,423500.0
2025-02-13,139.8086702399115,140.81744613961186,138.54525695828178,139.82826232910156,665900.0
2025-02-14,140.72929960574803,142.31591505799216,139.7792850599418,141.80662536621094,512800.0
2025-02-18,141.80661410840983,144.2551019301506,140.93495304164546,143.87313842773438,489600.0
2025-02-19,143.12878909814165,144.45097836650277,142.60971092774975,144.01023864746094,331000.0
2025-02-20,143.94170202111488,144.3824268363581,142.91333415595835,143.6576690673828,283100.0
2025-02-21,144.00046152927248,144.35304436591701,142.20816668836144,143.32467651367188,451900.0
2025-02-24,143.1679734070286,144.25510260272546,141.38548203557013,142.60972595214844,353300.0
2025-02-25,142.8741632870377,145.27367831527678,142.7174564829414,144.6664581298828,336700.0
2025-02-26,143.62828832707837,146.10615678438293,143.59890766903789,143.61849975585938,735600.0
2025-02-27,143.21693102979327,144.14735331926948,142.3648621360305,142.62930297851562,262800.0
2025-02-28,143.14840249829248,143.92211811173567,141.64992907469428,143.7262420654297,348700.0
2025-03-03,143.9417092483485,145.7731734330009,142.6880846270143,143.5695343017578,394100.0
2025-03-04,142.54115535917794,144.90150112160728,142.14940329945776,142.93292236328125,490100.0
2025-03-05,143.0406700510276,145.78297956351986,143.0406700510276,145.3814239501953,445100.0
2025-03-06,144.51955819613613,148.3783778054115,144.0298605796166,148.03558349609375,471700.0
2025-03-07,147.40875736971992,150.20003950079644,146.10616003817648,149.63198852539062,480200.0
2025-03-10,148.93662196596816,150.82684736023063,147.14432711634848,147.467529296875,391100.0
2025-03-11,147.24228898528116,147.45775715147082,144.23555312063095,144.8427734375,304000.0
2025-03-12,145.18552675241813,145.18552675241813,142.56074026251753,143.02105712890625,299700.0
2025-03-13,143.39326333992943,144.1669790183789,140.79785693906416,141.77725219726562,238400.0
2025-03-14,142.23756435683154,143.86336401714982,141.561779260411,143.6381072998047,223600.0
2025-03-17,143.49118010431383,144.95048427871978,142.854579225438,144.7937774658203,225200.0
2025-03-18,144.35304428256728,144.49015899982857,142.7762175618708,143.28550720214844,219900.0
2025-03-19,143.32466483055046,144.42159742424096,142.47259593827573,143.95147705078125,279600.0
2025-03-20,143.1190055816075,144.38241863949617,140.76844845978337,142.20816040039062,332800.0
2025-03-21,141.03291776438206,142.46284142280064,139.42671013206314,141.83602905273438,601900.0
2025-03-24,142.7468386396778,145.1267616063011,141.92415032610805,144.94068908691406,463800.0
2025-03-25,145.43038233248038,146.15512513486658,142.9231183481365,144.1767578125,325200.0
2025-03-26,144.02008088922838,145.6360771456499,143.2855344191484,145.49896240234375,630400.0
2025-03-27,145.22471455574868,146.80154137661276,144.0004705937233,146.27267456054688,312700.0
2025-03-28,146.2138845778836,146.90926165859608,142.7566211490686,143.9025115966797,239800.0
2025-03-31,143.5597480313838,146.01802456611082,143.08964252694352,145.32266235351562,372500.0
2025-04-01,145.8123486528671,146.93864705079392,144.34325598893645,146.02781677246094,240000.0
2025-04-02,144.950476293581,148.0159877703709,144.950476293581,147.4283447265625,247600.0
2025-04-03,143.73601082079833,146.95822887417515,143.4422042640377,145.60665893554688,352900.0
2025-04-04,142.22775504246812,144.91130294785953,137.1544807452422,137.29159545898438,531600.0
2025-04-07,133.53071403995318,139.19161608543078,128.1538449204054,131.8755340576172,629900.0
2025-04-08,134.5493112573588,136.43953673434598,128.57499483049722,130.9059600830078,473800.0
2025-04-09,130.43584131939255,141.44424838924863,128.6141806532637,140.78805541992188,491800.0
2025-04-10,137.11531475806592,140.41587148111097,134.73539182521205,137.85964965820312,309000.0
2025-04-11,137.96737957378522,141.7282680233526,136.86067330008663,141.140625,203000.0
2025-04-14,142.79581425798335,143.38344237476502,140.82722046414764,142.7860107421875,249300.0
2025-04-15,143.08963340422312,143.5205547049289,140.80764097500608,140.97413635253906,250700.0
2025-04-16,141.0916344202541,142.81537910049846,139.63234550590659,142.01226806640625,307700.0
2025-04-17,142.40405194984112,142.75663480933545,137.8107011490633,140.8664093017578,390600.0
2025-04-21,140.347331860725,141.08187824351555,138.19266546008294,139.6421661376953,291600.0
2025-04-22,141.52262171318722,143.79482599635148,140.63136839809852,143.0113067626953,217800.0
2025-04-23,144.823151790697,146.24328667195422,144.1865509396658,144.99945068359375,537000.0
2025-04-24,144.8818942857114,148.8680390845009,142.46280239941936,148.33917236328125,424500.0
2025-04-25,147.74175781185858,149.84745131334506,144.52934305768525,145.98863220214844,220500.0
2025-04-28,146.71339348881767,147.91804531450325,145.22470870652703,146.61544799804688,235200.0
2025-04-29,146.67419752698908,148.84845573678555,145.93965123839249,147.2030792236328,359900.0
2025-04-30,145.99844818091182,146.8994899625974,144.17677252930838,146.8603057861328,556200.0
2025-05-01,145.82883124627438,147.8721067076984,144.36514960993844,145.66183471679688,445300.0
2025-05-02,150.28867188742916,150.29848992197137,145.18047592473235,149.31614685058594,431600.0
2025-05-05,148.7562234700928,150.51462619082648,148.21594670199013,148.8053436279297,267600.0
2025-05-06,147.59706562017445,149.35545335071032,146.7817189664437,148.25523376464844,312000.0
2025-05-07,149.19827245283236,150.44583737765655,147.9605105733144,148.7169189453125,318400.0
2025-05-08,149.1098443499113,151.84077180787722,148.5695676661293,150.65213012695312,302500.0
2025-05-09,151.19244816342078,151.57556141857108,150.239574043545,150.6128692626953,231600.0
2025-05-12,153.03923920333585,153.82511675438303,150.98614553061785,152.77401733398438,352500.0
2025-05-13,153.55003919391905,153.55003919391905,150.49495171985274,150.92718505859375,339400.0
2025-05-14,150.90754450151144,150.90754450151144,148.3043412429943,149.7876739501953,350100.0
2025-05-15,149.65999740079963,152.73472152439172,149.65999740079963,152.21408081054688,278100.0
2025-05-16,152.4399964689241,154.3752135929202,151.86041763202704,154.23768615722656,278600.0
2025-05-19,153.5991717253283,155.5442069170815,153.5500515711728,155.28880310058594,185400.0
2025-05-20,157.43029958325823,157.43029958325823,155.12180229520027,155.73085021972656,388100.0
2025-05-21,154.09034056579173,154.8663850260189,153.07852836340334,153.6875762939453,319800.0
2025-05-22,153.5991755437167,154.4832783830283,152.81329802579143,153.88404846191406,278900.0
2025-05-23,152.3810559407016,153.4223372220158,151.53624028030902,153.18658447265625,260500.0
2025-05-27,154.25733338201647,155.642440728808,153.9233403306864,155.3673858642578,352800.0
2025-05-28,155.36737887816963,156.03536495079385,154.48326114812755,154.62078857421875,364400.0
2025-05-29,155.0432217337395,155.86838638532782,154.05106054476073,155.53439331054688,232100.0
2025-05-30,155.44597065814978,155.9764293133438,153.77597547059216,155.60313415527344,335100.0
2025-06-02,154.75833131600515,156.2613301068848,152.51859016122646,154.13946533203125,349600.0
2025-06-03,153.4223262867034,154.66008809008275,153.24551173728634,153.50091552734375,397800.0
2025-06-04,153.72689030243944,153.75635939881812,147.63635056847724,147.75424194335938,831900.0
2025-06-05,148.9035951518603,150.6325139165367,146.4182678697891,149.7975311279297,482400.0
2025-06-06,151.6443086942385,151.75236704132885,149.52245886221365,150.60302734375,264700.0
2025-06-09,150.0136191980335,150.4753066580511,148.6874500367206,148.9232177734375,388400.0
2025-06-10,149.47331461964936,150.29847914298685,148.19626572056148,149.83677673339844,323500.0
2025-06-11,150.298481081542,150.87805986212132,148.92320685824114,149.237548828125,380800.0
2025-06-12,148.73658814675593,151.8899014382214,148.73658814675593,151.6246795654297,337200.0
2025-06-13,150.29848970697998,151.00577791651503,148.0685667411024,148.49098205566406,361200.0
2025-06-16,148.5695758002576,150.20025395390124,148.4516844355203,149.01162719726562,346200.0
2025-06-17,147.9998142251002,148.58921108822153,146.49683048956007,146.81117248535156,379700.0
2025-06-18,146.48700188455078,148.06857491409224,146.48700188455078,147.0567626953125,383200.0
2025-06-20,147.6363309167007,148.10786637472864,146.35929693863002,147.6461639404297,570500.0
2025-06-23,146.85047583401547,151.2218996436103,146.85047583401547,151.0745391845703,356500.0
2025-06-24,151.84078941040858,151.84078941040858,150.4753180284472,151.15313720703125,246600.0
2025-06-25,151.14329517579995,151.80146318967252,150.0725448990236,151.21205139160156,264700.0
2025-06-26,151.80148526751537,152.83294856947208,150.4163778331554,151.7523651123047,658200.0
2025-06-27,151.9292038692901,153.35359852041546,151.50678849615022,153.0687255859375,643100.0
2025-06-30,153.27499173184543,153.73669418509692,151.8800663373244,153.6679229736328,315500.0
2025-07-01,153.66793021902077,156.9784367941011,153.20624273336693,156.20237731933594,338300.0
2025-07-02,156.21219361043833,157.69552619700025,155.8487164947486,157.48924255371094,293500.0
2025-07-03,157.76429959403765,158.51087491476963,156.99807321531225,158.19651794433594,235100.0
2025-07-07,158.10811741535406,159.5030428051159,157.7151861749073,158.11795043945312,313900.0
2025-07-08,158.05901225349746,159.7093565965001,157.02756390215916,157.22402954101562,342700.0
2025-07-09,157.10611832400417,157.18470756749457,155.30844371561136,156.90965270996094,252800.0
2025-07-10,156.37920902223024,157.52854871323547,155.53439331054688,155.53439331054688,361600.0
2025-07-11,155.7603190354981,155.7603190354981,153.86440405350666,155.11196899414062,292000.0
2025-07-14,154.3654022940558,156.13362296539574,153.92335087356255,154.77798461914062,276600.0
2025-07-15,154.95479334988428,155.21019713887813,151.34959626569866,151.43800354003906,254200.0
2025-07-16,151.20223382561701,152.86239590560155,150.8387717096552,152.24351501464844,261900.0
2025-07-17,152.00777788286257,153.6482890740105,151.78182817574609,153.27499389648438,397700.0
2025-07-18,154.08053795548372,154.43418210944483,152.18460777221878,153.61883544921875,243100.0
2025-07-21,153.65812006565358,153.90370586328876,152.49896229571195,152.7052459716797,205900.0
2025-07-22,153.35356052006435,156.54617514911817,152.48909391621635,156.35952758789062,449900.0
2025-07-23,157.24366585052525,158.99223535423732,156.3300789809644,158.8055877685547,450500.0
2025-07-24,158.559320268112,161.82979531304568,157.40675735764995,159.406494140625,431900.0
2025-07-25,159.63303970514875,160.65752157131263,158.38197744884806,158.58885192871094,296300.0
2025-07-28,158.79572064833397,159.5640858506177,155.80106845369062,156.3330078125,308500.0
2025-07-29,156.67779828906407,157.21959813532774,154.8750906357904,156.45123291015625,388200.0
2025-07-30,156.43152305866946,156.55957390550213,152.60938790987095,154.4514923095703,580700.0
2025-07-31,153.4565786283827,155.0031696816889,152.8655214674945,154.79629516601562,679700.0
2025-08-01,154.6288158726098,155.76165777291718,138.9856590147076,139.24179077148438,1012300.0
2025-08-04,140.98539693056597,140.98539693056597,135.03548860220042,137.05491638183594,839000.0
2025-08-05,137.26176707147744,138.9659752764255,135.63638251685612,138.12864685058594,540800.0
2025-08-06,138.21729882019278,138.6605841437307,135.49846914211423,136.47369384765625,515300.0
2025-08-07,137.71491162131494,139.37970798596095,136.83818640949156,138.39462280273438,564000.0
2025-08-08,138.59163887027924,139.93135534040795,138.48327889728324,138.65074157714844,428700.0
2025-08-11,139.222090228796,139.5077583171329,137.12385398637957,137.7838592529297,349500.0
2025-08-12,138.12864188918144,138.9856611656125,137.15340217271373,137.39967346191406,286100.0
2025-08-13,137.6065636684466,139.33046288965815,137.1731237449772,139.3206024169922,729900.0
2025-08-14,138.09908585404855,138.09908585404855,134.405016641309,136.27667236328125,875800.0
2025-08-15,136.29638497225332,136.8775816161289,135.81368782683418,136.65101623535156,770500.0
2025-08-18,136.81847442171076,137.4883401327873,135.3014499206359,135.83338928222656,529500.0
2025-08-19,136.20773671589527,138.4241784468644,136.20773671589527,137.50804138183594,333100.0
2025-08-20,137.8232781418471,139.14328874260568,137.18296372359896,139.07432556152344,519200.0
2025-08-21,138.53252821704885,139.78357552390523,138.1483456132288,138.54237365722656,270400.0
2025-08-22,139.15313972496236,141.1922734473183,139.0841915723422,139.3206024169922,356500.0
2025-08-25,138.8674588166062,139.4979127296023,136.88744301904194,137.47848510742188,245800.0
2025-08-26,136.99578214484688,138.0695212185511,135.9515793883002,137.62623596191406,442900.0
2025-08-27,137.0154742342195,138.47341091192982,136.9563715369727,137.36026000976562,729100.0
2025-08-28,138.07937388667187,138.07937388667187,135.35068400580442,136.81846618652344,320800.0
2025-08-29,137.09429553325865,137.7838521169858,136.2865335440943,137.19281005859375,370700.0
2025-09-02,135.37040364310914,136.46384879424832,134.13904716800675,134.37547302246094,310600.0
2025-09-03,134.0503903916783,134.1488898889654,132.43485133034417,133.20321655273438,382300.0
2025-09-04,134.31638220454172,136.41460360260194,133.02590787820503,136.39491271972656,401800.0
2025-09-05,136.94653328871905,138.71968945525342,135.5772656161853,136.552490234375,440800.0
2025-09-08,136.52295752982062,137.91193130257207,135.62652636886406,136.23728942871094,616100.0
2025-09-09,136.1978803964661,137.39968559639797,133.08502244977814,135.0059356689453,637100.0
2025-09-10,134.09965957050477,135.40982475360394,132.83875165602893,134.21786499023438,685100.0
2025-09-11,134.71040519706986,136.2175843964125,133.84352538471833,135.05519104003906,477500.0
2025-09-12,134.58234162242087,135.00593609481896,133.20322828923454,133.21307373046875,261300.0
2025-09-15,133.94202034472283,134.13903435567997,132.62200993698394,132.83872985839844,298000.0
2025-09-16,132.77962562814162,133.40023410540573,132.0999294759084,133.19337463378906,474800.0
2025-09-17,133.40021279614652,135.0256121123868,132.18856241946168,132.64169311523438,377400.0
2025-09-18,132.88798558145595,133.48888814617573,132.07037810452255,132.49395751953125,254800.0
2025-09-19,132.65158018177598,133.0850200863436,131.35126046807318,132.4348602294922,877200.0
2025-09-22,132.11962230163485,132.92739938115005,130.691251766929,130.74050903320312,402100.0
2025-09-23,131.0261738005905,131.95215627068484,130.00169183165633,130.0509490966797,319700.0
2025-09-24,130.03125417731107,131.3217134615017,129.38109429893456,129.53871154785156,353300.0
2025-09-25,129.53870141670419,130.54349251095573,128.32705085173455,128.8688507080078,388700.0
2025-09-26,129.37123644965243,130.4548211118124,129.00675974879576,130.31690979003906,274400.0
2025-09-29,130.42527680922657,130.7010994676822,129.4007947965638,130.29722595214844,540600.0
2025-09-30,129.74557555443596,131.76498814664785,129.74557555443596,131.66648864746094,310400.0
2025-10-01,131.3413962300209,132.3560326654084,130.33660523425266,132.13931274414062,310100.0
2025-10-02,131.66648573117217,132.38559368725765,130.97692912730892,131.19363403320312,398500.0
2025-10-03,130.49423360821496,131.58767874762543,130.45482178395852,131.23304748535156,402000.0
2025-10-06,130.90797079558112,131.21334480064905,129.45004891757588,129.9130401611328,447100.0
2025-10-07,130.13959122892322,130.53361925058735,127.8738925263408,128.6422576904297,438800.0
2025-10-08,129.22345454639873,130.04107697266164,128.31717806976172,129.6470489501953,361300.0
2025-10-09,129.73569586580498,130.8586922024014,128.25806831600946,128.66195678710938,554200.0
2025-10-10,128.98704858156654,130.04108184834632,127.95270619480443,128.97718811035156,426000.0
2025-10-13,129.0363213593292,130.37603789072034,128.21869880410003,128.27780151367188,311400.0
2025-10-14,128.10048555861533,129.10527677147402,127.11540026045824,127.86407470703125,337400.0
2025-10-15,127.86407220466812,128.4452689117164,125.95300435865052,126.1894302368164,438300.0
2025-10-16,126.5243419047704,127.56852978216413,125.94313774513942,127.23360443115234,352700.0
2025-10-17,127.23361106421747,128.15959357922404,126.92823704995098,127.41091918945312,339700.0
2025-10-20,127.67689829106764,128.14973499654218,126.11061637022783,128.0610809326172,240500.0
2025-10-21,128.6619859078428,129.80468841247423,127.19420346493476,128.62258911132812,311600.0
2025-10-22,128.70137488096933,130.13960588126338,128.04136960320932,128.12017822265625,357500.0
2025-10-23,128.27838836608,130.0482160538345,128.19928781482736,129.29678344726562,378600.0
2025-10-24,129.27699821696652,129.41542040316887,127.09188897025071,127.42807006835938,489300.0
2025-10-27,127.68513804202082,128.43657062662018,127.00290900843953,127.32919311523438,521700.0
2025-10-28,127.29953923164318,127.65548417782465,126.03396055341749,126.65686798095703,413500.0
2025-10-29,125.84608767724626,126.06361040803851,122.02957306455488,122.9095458984375,651100.0
2025-10-30,122.6425973459498,124.10591981246533,121.65386309537952,122.95899200439453,702600.0
2025-10-31,113.99117408852003,116.76951495369767,102.06704129042897,114.70306396484375,2758200.0
2025-11-03,114.78215353846566,114.78215353846566,107.07003104374891,111.84561920166016,1661000.0
2025-11-04,113.07164922422088,114.69317278774453,111.26226373964292,112.8936767578125,1029100.0
2025-11-05,113.04198468525121,114.73271928879292,111.49955417930168,114.26801300048828,896900.0
2025-11-06,113.72420198995826,115.64234871180304,112.517952627641,114.84147644042969,880300.0
2025-11-07,114.92057976181373,115.60280123250854,113.39792818360942,114.91069030761719,697200.0
2025-11-10,114.68328006091402,115.45449154553131,112.71570107535919,115.06888580322266,514000.0
2025-11-11,115.64235215314066,118.16362740289492,115.64235215314066,116.93759155273438,484800.0
2025-11-12,117.00680708571316,118.32182544371216,116.58165860151216,116.82884216308594,547500.0
2025-11-13,116.96726664292429,120.50692958090833,116.96726664292429,118.84585571289062,679400.0
2025-11-14,118.42069332802943,119.33033453666947,117.05624283023447,117.27376556396484,521200.0
2025-11-17,117.1551218108406,118.14385608312521,116.24548809076526,117.99554443359375,820200.0
2025-11-18,118.3119443710672,118.75687176767599,116.72996353102775,117.96588134765625,817400.0
2025-11-19,118.16362210922091,118.16362210922091,116.38389759577892,116.6706314086914,598900.0
2025-11-20,116.67063483535937,118.26249749040201,116.04773500908134,117.24410247802734,507400.0
2025-11-21,116.79916971414367,120.86286792776397,116.79916971414367,120.1509780883789,509100.0
2025-11-24,119.48852930748254,121.02107037008182,119.08315219875638,120.10154724121094,740000.0
2025-11-25,121.03095194765177,122.68213618171329,121.03095194765177,122.04934692382812,543600.0
2025-11-26,121.63407548431789,123.11717675407199,121.63407548431789,122.41517639160156,538000.0
2025-11-28,122.23721179455744,124.65961521692697,122.23721179455744,123.34459686279297,315700.0
2025-12-01,123.47312464549341,123.55222519221778,121.64396787729149,121.89115142822266,536800.0
2025-12-02,122.37563109798752,122.46462110038372,119.4390968008952,120.2300796508789,325400.0
2025-12-03,120.08176988930819,122.86011822072538,120.04222715811682,120.68489837646484,543100.0
2025-12-04,120.82332005860296,122.6821452414219,120.55636513524256,120.64534759521484,708000.0
2025-12-05,120.6156759451698,122.11855606626924,119.26111499759371,120.53658294677734,537000.0
2025-12-08,119.55773823925648,120.72444490270962,117.95599365521366,118.71731567382812,496600.0
2025-12-09,118.25260671307173,118.49979025868578,114.06037589162156,114.41632080078125,640300.0
2025-12-10,114.86124902547321,116.47289058274676,113.83296456280685,115.84998321533203,734700.0
2025-12-11,116.6310870053096,117.33308739219939,115.84010415999195,116.68052673339844,389700.0
2025-12-12,117.18477675810965,120.26963024864754,116.32458281214376,120.10154724121094,656400.0
2025-12-15,120.11143594513233,121.08039125301917,119.12270172858626,120.95185852050781,588600.0
2025-12-16,121.28802692871906,122.45473362902362,118.17351257639858,121.44622802734375,644800.0
2025-12-17,120.73433285185864,123.19627887906455,118.72720364799784,122.2372055053711,567300.0
2025-12-18,122.2767604710972,122.72169540087228,120.65523693661119,121.23859405517578,457100.0
2025-12-19,121.95048213130443,122.92933449703057,119.89392056770684,120.02245330810547,1300400.0
2025-12-22,120.02244905131522,122.30642273678362,119.70605439556444,121.35723876953125,527800.0
2025-12-23,121.48577799610219,121.64397155088497,119.95323691666961,120.81343841552734,311700.0
2025-12-24,121.1496037277725,121.7823930301015,120.38828169146663,121.36712646484375,198000.0
2025-12-26,120.99141254975284,122.08890816765887,120.34873378036154,121.86149597167969,306000.0
2025-12-29,121.90103810595791,122.90954365167185,120.9419647432383,121.82193756103516,400200.0
2025-12-30,121.41656795360201,122.89966931682952,121.04084411378047,121.35723876953125,289800.0
2025-12-31,120.15097596397585,121.94058998507745,119.98289296138277,120.58602142333984,314300.0
2026-01-02,120.36850209754444,121.61430932967109,119.4193181494529,121.15949249267578,295100.0
2026-01-05,120.38828287586783,123.17651312401219,120.38828287586783,121.61431121826172,435700.0
2026-01-06,120.8430922091253,121.46599202442482,118.7568624940921,119.20178985595703,777200.0
2026-01-07,119.31055741898699,120.57613602320409,116.28503309681528,119.0831527709961,478500.0
2026-01-08,118.56900865138992,121.98014631699301,118.17351344536358,121.06062316894531,330000.0
2026-01-09,120.70467850674399,123.5621198728979,120.09166055886544,122.4547348022461,429100.0
2026-01-12,122.60304703866626,123.88840458144911,121.59454142246342,123.7203140258789,477300.0
2026-01-13,123.64122184064439,124.0268275973534,121.15949674370285,122.10868072509766,351900.0
2026-01-14,122.71180688445504,125.72744932780128,122.71180688445504,125.42093658447266,611700.0
2026-01-15,125.70766789113175,125.78676843900955,123.11718152395939,123.7005386352539,381000.0
2026-01-16,122.60304567683241,123.78952374665012,121.85160554277793,123.30504608154297,363400.0
2026-01-20,123.49290649216461,124.1158063396922,122.0493554255934,122.4250717163086,275100.0
2026-01-21,122.90954323158518,124.2047901340779,122.50416614126715,123.6016616821289,421000.0
2026-01-22,123.64121667891544,124.98589581561515,122.66236437418617,123.0677490234375,369700.0
2026-01-23,122.93921055756546,124.85735737798285,122.4745118058816,124.58051300048828,429500.0
2026-01-26,124.99577817123766,125.55935637440064,123.69064930373163,124.92656707763672,315400.0
2026-01-27,123.54233481410213,124.87713201390274,122.77112334791536,123.33470153808594,303100.0
2026-01-28,122.80078648003611,123.6609879626866,121.8614919932062,122.3064193725586,347800.0
2026-01-29,122.88978028418853,123.86862507511535,121.20892754069328,122.4547348022461,386000.0
2026-01-30,121.52533188143772,123.60167232496788,121.27814831569736,123.54234313964844,512700.0
2026-02-02,122.80078342815366,124.49152553193812,122.80078342815366,123.42369079589844,489100.0
2026-02-03,122.51405462375108,126.48876266797768,122.29653189940339,123.22593688964844,658700.0
2026-02-04,124.77433039015442,129.44927260782487,123.77184577350829,128.26812744140625,589400.0
2026-02-05,126.71975064755804,128.1192596554473,121.05225107397254,123.05722045898438,2144200.0
2026-02-06,126.58078326238557,134.97782150042084,126.58078326238557,133.31031799316406,1045700.0
2026-02-09,132.5857587104382,138.531180271334,132.2582131007177,137.43936157226562,1043400.0
2026-02-10,136.78427392403074,139.88104683101494,136.78427392403074,139.126708984375,622100.0
2026-02-11,137.99519392074043,139.50388475135443,137.56840169460276,138.9678955078125,584300.0
2026-02-12,139.11678651599092,140.94308767923593,138.3525134196047,139.46417236328125,572700.0
2026-02-13,139.46416820425452,141.86615414747763,139.36492159879577,141.51876831054688,471900.0
2026-02-17,138.2234773285034,142.55102629654255,138.2234773285034,140.59568786621094,614700.0
2026-02-18,140.41703714664675,142.04482998774162,139.791721402891,140.66517639160156,582000.0
2026-02-19,140.5956812663536,142.25326464590432,139.98030082414553,142.09445190429688,525500.0
2026-02-20,142.0547550361601,144.0597244456509,140.94309602664507,143.97039794921875,664500.0
2026-02-23,142.42199361111417,145.15152505885825,142.06467252487357,144.63539123535156,513500.0
2026-02-24,144.98279666295065,145.8165408414096,142.77931908758302,143.06715393066406,429800.0
2026-02-25,141.3500320156877,142.5907281428982,139.3847584456305,141.61801147460938,348900.0
2026-02-26,142.45178416412276,142.8488009040386,139.9505362960431,140.73464965820312,331300.0
2026-02-27,140.47658357934912,142.9381205686862,139.9505296087492,142.64036560058594,344600.0
2026-03-02,141.93563886113196,142.2830398395081,140.56590547180699,141.60809326171875,335000.0
2026-03-03,139.5931967078321,140.26814325067423,135.90088396317486,138.71974182128906,347300.0
2026-03-04,138.302888395737,138.47162126788456,134.9976717766612,136.02000427246094,389000.0
2026-03-05,134.98775502807862,135.32522078079646,133.40959299752922,133.72720336914062,452300.0
2026-03-06,133.0026313554941,133.0026313554941,130.02496050425168,131.096923828125,398500.0
2026-03-09,129.9951790988654,132.98276993154295,126.58078092139597,132.75448608398438,545700.0
2026-03-10,132.3574660154593,133.1316591702968,130.42196798314936,131.14654541015625,503100.0
2026-03-11,130.8190202738326,132.28800044532838,129.0721101988683,131.03738403320312,563800.0
2026-03-12,130.29295237048808,131.8016279987067,127.68252279954663,127.90088653564453,620600.0
2026-03-13,129.1812869710477,129.1812869710477,126.10436937058473,127.69245147705078,660600.0
2026-03-16,128.51628506786432,130.4319280867629,125.06219070801843,128.08949279785156,370700.0
2026-03-17,129.00263581888095,130.04482370856644,127.28551643200822,128.5361328125,276700.0
2026-03-18,123.45423058912087,125.63786042046195,120.51626292882625,123.29542541503906,910500.0
2026-03-19,122.0944332187195,123.8909588849741,120.54603921873606,123.04728698730469,518500.0
2026-03-20,123.33512999241371,123.33512999241371,119.41452545613383,120.15894317626953,1481500.0
2026-03-23,122.59071811756196,125.39964869362488,122.0745842329971,123.21602630615234,455200.0
2026-03-24,122.2433152775169,124.28798013248851,121.95547285876513,123.22594451904297,405000.0
2026-03-25,124.50634549167631,125.62793211237509,122.78921864642815,124.88351440429688,337200.0
2026-03-26,124.28798636131239,126.3922023143744,123.19617519683187,123.76193237304688,442100.0
2026-03-27,123.01751427118627,123.28550132328671,120.85373975633635,121.08202362060547,381400.0
2026-03-30,121.64777727824665,123.01751071469691,120.19864504103799,122.44182586669922,562000.0
2026-03-31,123.46415851677581,126.01502957768723,122.67010992701152,125.08202362060547,557800.0
2026-04-01,126.39219982096562,127.68252689973865,125.38972274230011,125.80659484863281,380200.0
2026-04-02,124.2085781211438,126.14406117582702,123.32520302720033,125.07210540771484,297500.0
2026-04-06,123.66266876079281,125.25076596450165,123.66266876079281,125.07210540771484,461100.0
2026-04-07,124.38723692091199,126.22346576757812,123.8711106378232,124.67507934570312,376900.0
2026-04-08,130.4021481364575,131.68254004802253,127.19617800807119,131.03738403320312,645200.0
2026-04-09,130.24332882387228,131.45424955756675,126.39220287440348,130.42198181152344,424100.0
2026-04-10,131.2656579543429,131.71230555728022,129.87608426848973,130.521240234375,407400.0
2026-04-13,129.82646170678544,131.43439923843442,126.63042687940094,131.126708984375,396300.0
2026-04-14,130.2532453341348,131.73216065356567,129.99518597737963,130.03488159179688,315500.0
2026-04-15,129.83636721114993,130.0547309433663,127.64282491736233,128.68499755859375,407100.0
2026-04-16,125.9554827551545,129.3599535123959,125.9554827551545,127.33512878417969,393800.0
2026-04-17,128.68501330537714,131.31529853067389,128.68501330537714,129.65773010253906,401100.0
2026-04-20,129.59817078840075,131.00759986778516,128.69494031122633,129.945556640625,403600.0
2026-04-21,129.727195499975,131.2656618627598,125.7470474243164,125.7470474243164,310200.0
2026-04-22,126.33264680138942,126.33264680138942,122.04480110008107,123.62297058105469,458900.0
2026-04-23,124.44679072012924,126.49146323670142,123.51379231359721,124.01007080078125,440800.0
2026-04-24,123.48400922187079,123.48400922187079,121.6577005635927,123.15646362304688,440900.0
2026-04-27,123.11676141393268,125.2904634945878,122.6204829533344,123.80162811279297,359700.0
2026-04-28,125.18128618602746,125.70734016180099,122.79914797388655,124.8338851928711,354300.0
2026-04-29,124.20857785922294,124.96292327213307,121.87607050853111,121.9852523803711,448400.0
2026-04-30,122.51130595027864,125.14158341040145,120.97283963229869,122.75944519042969,764800.0
2026-05-01,126.26316859263083,127.5237125861033,117.0224658192811,118.13412475585938,989400.0
2026-05-04,117.79666211505766,120.84381172589876,116.58574139374336,119.7023696899414,739600.0
2026-05-05,120.00014032911528,122.78922301811379,119.92073395333378,121.1217269897461,628600.0
2026-05-06,122.74597925597982,125.94466800462597,121.24129756714204,122.19791412353516,917000.0
2026-05-07,122.5068295340525,126.02439054042098,122.13813047351475,124.66918182373047,749700.0
2026-05-08,124.78875603965518,125.4165335007669,119.9658058031768,120.56369018554688,794900.0
2026-05-11,120.79288554794945,120.79288554794945,119.0191585502766,119.53732299804688,706100.0
2026-05-12,120.02559365453983,120.43415267647454,116.72725880994862,117.6340560913086,696600.0
2026-05-13,117.58423293808002,118.33159035082205,116.01976505817387,117.46465301513672,679500.0
2026-05-14,118.31166263789773,119.73662439056804,116.62761485678391,117.57426452636719,531000.0
2026-05-15,117.49455009110837,117.5045093824967,114.06666843041747,114.26596069335938,447000.0
2026-05-18,115.19268785792543,116.90662874327987,114.76420263658683,115.40194702148438,433100.0
2026-05-19,115.48166685737739,115.63113986049136,112.05378509001822,113.20970153808594,575800.0
2026-05-20,113.66807993613209,115.04321484042606,111.15696237122292,114.85388946533203,562600.0
2026-05-21,116.08951407739181,116.08951407739181,112.37265332877841,115.1030044555664,345600.0
2026-05-22,115.39198749681162,116.38846404651633,114.30582410432685,115.82047271728516,405800.0
2026-05-26,115.79056648170686,116.55785764558959,114.96349676302546,115.96993255615234,344500.0
2026-05-27,116.52796630163347,117.69384200162881,114.32575411191587,114.89374542236328,464000.0
2026-05-28,114.40547144179769,115.93007936247552,112.95061657623215,115.58131408691406,510100.0
2026-05-29,114.65458561775299,116.84683851674723,113.34920381323532,115.44180297851562,559600.0
2026-06-01,114.28589767180515,114.72434218302038,111.63526640610465,111.9840316772461,706800.0
2026-06-02,111.5555436879482,112.65167394505289,110.84804626905223,111.78473663330078,452400.0
2026-06-03,111.29646253608045,113.61824699938008,111.29646253608045,112.13349914550781,372600.0
2026-06-04,114.54497230632394,115.35212345281656,111.14699134502068,112.15343475341797,337600.0
2026-06-05,112.69152600064275,114.18624078068318,111.58544405772433,112.96057891845703,466300.0
2026-06-08,111.86445781905672,112.24311616501637,110.55906839000053,111.54558563232422,422200.0
2026-06-09,112.88085932662787,115.74074968498803,112.27300803930216,115.49163055419922,444400.0
2026-06-10,115.74074928767203,116.13934141606836,112.97054577921195,114.26596069335938,496800.0
2026-06-11,114.70441351982215,116.59772043978674,113.85740999319688,116.16923522949219,395200.0
2026-06-12,117.48458764205596,118.05257897569324,115.96993901734801,117.30522155761719,342600.0
2026-06-15,118.28175862932584,120.31457162088154,117.14577601676713,117.66394805908203,576100.0
2026-06-16,118.08246565966249,120.62348378448296,113.36912845320511,120.22489166259766,474700.0
2026-06-17,121.19147655168894,121.918900150595,119.03908362900873,119.56721496582031,680500.0
2026-06-18,120.03556323646836,122.1182031608104,118.69032142639777,119.89605712890625,750600.0
2026-06-22,119.13873446752551,120.58363003359555,118.46113010611298,119.57718658447266,468400.0
2026-06-23,119.93591657137902,122.14809569936509,118.6604278207416,120.1850357055664,514100.0
2026-06-24,121.55021059109053,124.60939323702425,121.34094382937874,123.84210205078125,404900.0
2026-06-25,125.28699706013307,127.68850153642342,124.45991971828299,125.98452758789062,363500.0
2026-06-26,125.49625757990486,126.67210019838983,124.3204149614199,125.53611755371094,727400.0
2026-06-29,125.16742108368359,125.60587320209562,123.48337326752176,124.84854888916016,446600.0
2026-06-30,124.16097333332938,125.86494727656601,123.5033027809896,124.75885772705078,329300.0
2026-07-01,124.67914609082169,126.39307933521575,123.66273577346423,124.80868530273438,405600.0
2026-07-02,125.82508774888942,127.77818082996899,124.96812492977865,126.5325927734375,468400.0
2026-07-06,125.98452783897301,126.6023460237271,123.74245564919634,125.56600952148438,431400.0
2026-07-07,126.18381913439254,128.26645901687073,125.71548155556971,127.2400894165039,392700.0
2026-07-08,126.00445175211411,126.26353777363065,122.60647080352626,123.77234649658203,537700.0
2026-07-09,124.02146439127118,125.03787467960888,123.34386006655016,124.0114974975586,302100.0
2026-07-10,124.55956853594634,126.53259544666133,123.93179104742975,125.08769989013672,385200.0
2026-07-13,125.64571994715708,126.72191640641843,123.96167980892794,124.449951171875,391600.0
2026-07-14,127.96751666781715,128.95403392567474,127.5091383673285,127.82801055908203,739900.0
2026-07-15,129.25298235497795,130.3092450844948,127.99741214779503,128.65509033203125,466800.0
2026-07-16,129.56187796196684,134.6040465870392,129.56187796196684,134.27520751953125,579300.0
2026-07-17,135.351401437915,136.16850424088722,130.24944675099272,132.1427459716797,530800.0
2026-07-20,131.9135687694055,131.9135687694055,129.2928306127641,129.4522705078125,422900.0
2026-07-21,130.07008242817932,130.59821378154385,127.46927803301472,128.45579528808594,328800.0
2026-07-22,129.35261865201468,130.02025611657908,128.02730301458666,128.71487426757812,309900.0
2026-07-23,128.39600579528673,129.36258923692642,127.71839385448645,128.54547119140625,382800.0
2026-07-24,129.13338680160044,132.26232242316664,129.13338680160044,131.8936309814453,335900.0
2026-07-27,132.72071171310446,133.60757521827134,132.19258036761323,132.9000701904297,411200.0
2026-07-28,134.9030016293852,137.54365843276426,134.3549364800917,137.32443237304688,593100.0
2026-07-29,135.52081464440568,136.11870667337666,134.0759266469227,135.75,580000.0
2026-07-30,136.39999389648438,136.39999389648438,133.11000061035156,133.8699951171875,627000.0
2026-07-31,137.4600067138672,139.57000732421875,132.1699981689453,133.9600067138672,886500.0
2026-08-03,137.22999572753906,138.4600067138672,134.52999877929688,136.77000427246094,642500.0
2026-08-04,137.8699951171875,137.8699951171875,135.33999633789062,136.17999267578125,511900.0
2026-08-05,136.8699951171875,136.8800048828125,134.8699951171875,136.75,454800.0
2026-08-06,138.6199951171875,138.69000244140625,134.6699981689453,135.77999877929688,545000.0
2026-08-07,135.05999755859375,137.67999267578125,134.7100067138672,135.4199981689453,686300.0
2026-08-10,134.38999938964844,134.52000427246094,132.92999267578125,133.67999267578125,446700.0
2026-08-11,132.8000030517578,135.0500030517578,132.8000030517578,134.75,343700.0
2026-08-12,133.50999450683594,134.47000122070312,132.27000427246094,133.14999389648438,315100.0
2026-08-13,134.44000244140625,134.44000244140625,132.08999633789062,132.57000732421875,490800.0
2026-08-14,132.08999633789062,132.75,129.55999755859375,132.10000610351562,381600.0
2026-08-17,133.16000366210938,133.16000366210938,130.22000122070312,131.74000549316406,374500.0
2026-08-18,132.75,133.47000122070312,131.22000122070312,131.72999572753906,500100.0
2026-08-19,133.0500030517578,134.3800048828125,132.2899932861328,132.92999267578125,390400.0
2026-08-20,131.4499969482422,133.8300018310547,130.89999389648438,132.9600067138672,420900.0
2026-08-21,134.0399932861328,135.1300048828125,133.10000610351562,134.8000030517578,400500.0
2026-08-24,135.36000061035156,136.33999633789062,134.38999938964844,134.75,282300.0
2026-08-25,135.58999633789062,135.58999633789062,133.22000122070312,134.72000122070312,280900.0
2026-08-26,135.0,136.63999938964844,134.44000244140625,135.24000549316406,281400.0
2026-08-27,133.77999877929688,134.69000244140625,132.25999450683594,132.86000061035156,295700.0
2026-08-28,133.5500030517578,133.66000366210938,132.0399932861328,132.99000549316406,325400.0
2026-08-31,132.2100067138672,132.44000244140625,130.8300018310547,131.6199951171875,389200.0
2026-09-01,131.64999389648438,132.07000732421875,130.77999877929688,130.9199981689453,418200.0
2026-09-02,131.27000427246094,132.25999450683594,129.69000244140625,130.3300018310547,472500.0
2026-09-03,130.64999389648438,130.64999389648438,126.98999786376953,128.30999755859375,340000.0
2026-09-04,127.52999877929688,128.47000122070312,126.52999877929688,127.41000366210938,324000.0
2026-09-08,126.19999694824219,126.98999786376953,124.25,124.33999633789062,362200.0
2026-09-09,123.97000122070312,123.97000122070312,121.08999633789062,122.11000061035156,383000.0
2026-09-10,122.05000305175781,123.12000274658203,120.73999786376953,123.05000305175781,435100.0
2026-09-11,124.8499984741211,125.5999984741211,123.05999755859375,124.83999633789062,491900.0
2026-09-14,125.27999877929688,126.20999908447266,124.0,124.91000366210938,423200.0
2026-09-15,124.8499984741211,124.86000061035156,123.41000366210938,124.68000030517578,474700.0
2026-09-16,124.83999633789062,126.25,123.19999694824219,124.70999908447266,461600.0
2026-09-17,125.66000366210938,126.22000122070312,124.55000305175781,125.5,551500.0
2026-09-18,125.48999786376953,125.7699966430664,124.41000366210938,124.44000244140625,821300.0
2026-09-21,124.83999633789062,125.9800033569336,123.31999969482422,123.4000015258789,424400.0
2026-09-23,125.43000030517578,125.72000122070312,124.5,124.73999786376953,335300.0
2026-09-24,,,,,377179.0
