Date,Open,High,Low,Close,Volume
2023-08-25,120.78431619879032,122.81390114359978,120.21680561182608,122.67923736572266,493000
2023-08-28,122.76583662153595,124.64152375262681,122.76583662153595,124.4780044555664,331900
2023-08-29,124.85313882363003,126.93082164908694,124.46837459081131,126.79615783691406,472400
2023-08-30,127.32514662754737,128.18122660764476,126.6806832427325,127.82533264160156,298900
2023-08-31,128.20047243764535,128.63331924053045,127.20011505592758,127.5079116821289,305800
2023-09-01,128.02734015187872,128.69103075802838,127.46944316985002,127.49829864501953,252000
2023-09-05,126.66146169919045,126.95003116428316,122.50611130451453,122.7081069946289,325300
2023-09-06,122.91971901854386,123.13132830124047,121.39031265265571,121.59231567382812,291100
2023-09-07,121.47688528995286,122.32334442871263,120.37071217704028,120.58232879638672,328600
2023-09-08,120.72661517649743,121.84240190476012,120.35147928747043,120.53423309326172,238800
2023-09-11,122.15019934654015,123.05437674267795,121.59230968164995,122.16944122314453,333500
2023-09-12,121.30375701204977,122.43878571398,120.6400516113284,121.70774841308594,258000
2023-09-13,120.98631223028912,121.76543942444462,120.34184881441666,120.5919418334961,279300
2023-09-14,121.20755406828378,122.44839093096296,121.20755406828378,121.92897033691406,217900
2023-09-15,121.66927042883084,122.35221036140925,120.39957794288019,121.130615234375,589200
2023-09-18,121.5442225254737,121.5442225254737,120.15910083878411,120.8516616821289,175100
2023-09-19,120.89975538209652,120.89975538209652,119.33187259288644,120.53423309326172,218600
2023-09-20,121.04404934317118,121.29414241630435,119.81283319640339,119.88016510009766,206200
2023-09-21,119.5915814853835,119.61081602357613,117.53314098335909,117.56199645996094,335700
2023-09-22,117.66782656355645,118.21610273643255,117.45620991110827,118.00448608398438,341200
2023-09-25,117.34077068831786,119.39921139699219,116.84059192021189,119.3126449584961,258800
2023-09-26,118.82206477761558,119.48577007673056,118.53350268046277,118.88939666748047,547000
2023-09-27,119.3126479723948,119.70701843321653,118.1872402117581,118.81246185302734,362400
2023-09-28,119.13950746199725,120.85166777851079,118.56237584297187,120.68814849853516,219300
2023-09-29,121.66927149003342,121.99631738853884,120.03406401338636,120.2745361328125,330900
2023-10-02,119.78395548707734,120.69775382607703,119.26453489555266,120.28414154052734,244100
2023-10-03,119.29340648562564,120.53424350988173,117.82171828016256,118.18724060058594,236300
2023-10-04,118.8413150678333,119.90901178172992,117.66781004256849,119.49539947509766,208200
2023-10-05,119.23569473519102,120.16872773211533,118.11990791789228,119.03369903564453,466700
2023-10-06,118.89902522929134,121.86164325055658,118.68740860796868,121.59231567382812,491700
2023-10-09,121.02480932619929,122.37145467778764,120.89976646460336,122.10212707519531,275700
2023-10-10,122.3906880798059,123.70847793865926,121.68851359938441,121.71736907958984,322000
2023-10-11,122.66961669921875,122.83313595291355,121.82315761659957,122.66961669921875,212900
2023-10-12,122.37143953710256,122.54457973715071,120.29375713652479,120.6400375366211,189300
2023-10-13,121.19793811935457,121.842401584592,120.6208065484162,121.16908264160156,324900
2023-10-16,122.50611887985671,122.57345078072507,121.36146922646793,121.88088989257812,275200
2023-10-17,121.2075666764976,123.44876120681954,121.2075666764976,122.62154388427734,314400
2023-10-18,122.03478544306672,122.80429176930639,121.46726746403726,121.94821166992188,287300
2023-10-19,121.27488424535677,122.61190845722675,120.61117893923942,120.93822479248047,443900
2023-10-20,121.1306013926972,121.65964292581712,117.28304795510005,117.56199645996094,446500
2023-10-23,117.08106243237853,118.46618413837787,116.59049727173269,116.86944580078125,379000
2023-10-24,117.47543620540878,119.05293270920211,117.08106574877378,118.63932037353516,312100
2023-10-25,118.15677276144453,119.4596516517281,117.63561973271062,118.09886932373047,431300
2023-10-26,117.02761412299786,121.0134603739244,117.02761412299786,119.12187194824219,576000
2023-10-27,119.16047518784606,119.51755620789429,116.15902425320523,116.94075012207031,364000
2023-10-30,117.66457150071054,118.0506115995379,116.63191847013125,117.90584564208984,283100
2023-10-31,118.23397832287583,118.60071235470951,117.577712385893,118.00234985351562,422900
2023-11-01,117.847941489138,119.12186865336518,117.36539320930797,118.63932037353516,360500
2023-11-02,119.40174500651636,119.9518497393298,118.68757562918539,119.26663208007812,384300
2023-11-03,120.08696643881918,121.57321603943892,120.08696643881918,120.974853515625,278000
2023-11-06,120.89764432950582,121.34159523213705,120.39579735185238,120.82044219970703,173500
2023-11-07,120.27033814314946,120.62741916445184,119.8360402653971,120.2027816772461,205000
2023-11-08,120.52125543592591,121.10996492498091,120.06766623895945,120.75288391113281,175800
2023-11-09,121.30298351927328,121.30298351927328,119.73952451177246,120.04835510253906,118600
2023-11-10,119.90360110009986,121.399503795025,119.56581875827565,121.33194732666016,195600
2023-11-13,121.01345529818798,121.1003178161299,120.02906006116073,120.1834716796875,183100
2023-11-14,121.55391115797988,123.39724915782807,120.936249936579,123.3875961303711,267400
2023-11-15,123.35863312683614,124.30443092733428,122.90503659818405,123.25247192382812,388600
2023-11-16,123.19457641995044,124.13071389102679,122.41284320538445,123.09806823730469,217000
2023-11-17,124.07281379686883,124.57466814111162,123.15597499237893,123.46480560302734,162700
2023-11-20,123.00155090272261,123.1945746283093,122.01715567308845,122.87609100341797,213900
2023-11-21,123.01121297209009,123.8218979529415,122.76028579193338,123.44551086425781,160600
2023-11-22,123.96665977430045,124.69048225028065,122.914707976832,124.08248138427734,174800
2023-11-24,124.46850623760841,124.46850623760841,123.6288769312162,124.04386138916016,65900
2023-11-27,123.35863193285543,123.8218814835977,122.42248716799214,122.56725311279297,367500
2023-11-28,122.56726027052797,122.57691329757223,121.10996243713889,121.22577667236328,218000
2023-11-29,121.25472106402746,121.9881964499266,120.55985042087056,120.99414825439453,331800
2023-11-30,121.07136390507863,122.69272646591232,120.45370267838986,122.46110534667969,301000
2023-12-01,122.00749831802362,124.05349819494825,122.00749831802362,123.62886810302734,218300
2023-12-04,123.00155352374544,124.38164926101614,122.46110180679085,123.93769836425781,192000
2023-12-05,123.77363433441964,124.1982791787773,121.48635282699652,121.59251403808594,178000
2023-12-06,121.9785500946843,122.85679147312398,121.48634880167852,121.9592514038086,179500
2023-12-07,121.83379146528237,122.6734281493362,121.59251731777178,122.07506561279297,254000
2023-12-08,121.94959920990867,123.04980867489485,121.2354298329936,122.87609100341797,265800
2023-12-11,122.81819302140134,123.22353181848027,121.93029857047753,123.11737060546875,338000
2023-12-12,123.19458223267412,123.62888011972512,122.25843735432503,123.030517578125,210300
2023-12-13,122.74097856816276,124.4878083169758,122.74097856816276,124.10176086425781,425000
2023-12-14,124.57466295525923,125.47219566747552,122.45144615272285,122.95330047607422,412900
2023-12-15,122.72168474321455,124.09212012074336,121.57321745592215,121.58287048339844,713000
2023-12-18,122.28738762368339,122.76993591705903,121.48635568953519,122.61552429199219,240500
2023-12-19,123.25248896561007,123.65783514364217,121.6311263427904,121.82415008544922,659100
2023-12-20,121.62147774620003,122.50937226857559,121.08102597326958,121.18718719482422,346400
2023-12-21,121.83379611512954,121.83379611512954,120.49231239282044,121.51531982421875,421900
2023-12-22,121.98820682835046,122.60586803857178,121.71798096926643,121.86273956298828,312200
2023-12-26,121.73728030157127,122.44180403483686,121.20647424478882,121.43810272216797,274700
2023-12-27,121.71797248147908,122.05575478177946,120.66601347414141,120.90728759765625,283100
2023-12-28,120.6177783132652,121.40915724389927,120.05802050881351,120.83009338378906,343600
2023-12-29,120.82042263571759,120.98448725923961,119.24731076576724,119.30522155761719,313500
2024-01-02,118.33048400507984,119.76847574725994,118.02165341555587,118.59105682373047,313100
2024-01-03,120.78182769015574,122.81818188143322,118.85163470226065,120.9844970703125,531700
2024-01-04,120.81077670302624,121.52494603089515,119.79742246182032,119.88428497314453,353300
2024-01-05,119.45964384127878,120.02905460628045,118.69721672111496,119.86498260498047,423000
2024-01-08,119.73953213187556,120.79149123065565,118.09887089459961,120.00975799560547,352400
2024-01-09,119.39210401151412,120.28964417793567,118.67793456221082,120.27999114990234,250300
2024-01-10,120.11591846241205,121.04241028792013,119.89395037419895,120.82044219970703,279600
2024-01-11,121.00380927134914,122.53831669687723,120.57917177350777,122.41284942626953,323100
2024-01-12,123.4261986038641,123.50340809589281,121.52495720049569,122.01715850830078,231700
2024-01-16,121.48634817990717,122.39354127156845,121.12926717726768,122.3838882446289,257500
2024-01-17,121.54426685222283,122.8278397204519,121.49600907750106,122.2680892944336,336900
2024-01-18,122.876100447986,125.47220532952528,121.90135080738276,124.63257598876953,444200
2024-01-19,125.18268267158516,126.87160167039863,124.0535067247466,126.23463439941406,418000
2024-01-22,126.33112908123387,127.20937045222468,126.00299979741455,126.61101531982422,266200
2024-01-23,127.19973938013392,127.24799715710307,125.78104614923554,127.22869110107422,217800
2024-01-24,127.50854252440655,127.6726071592471,125.98368831528413,126.21531677246094,294400
2024-01-25,127.4216965566274,127.75948624024079,125.82929313663216,126.6689224243164,332300
2024-01-26,127.08391965169312,127.96216113643406,126.81369376811224,127.10322570800781,219900
2024-01-29,126.47590503677381,127.9621472350077,125.93545332832512,127.63401794433594,187800
2024-01-30,127.42169552655902,128.44469550700896,127.03566279943983,127.63401794433594,228400
2024-01-31,128.14710349111215,128.53435148166193,125.03951776645216,125.7365493774414,537500
2024-02-01,126.29805931683907,126.92731704694036,125.47517018793579,126.33677673339844,298800
2024-02-02,125.81400607323201,126.5400794779732,124.58451763837661,125.94953918457031,344800
2024-02-05,125.01047371963757,127.25645293560962,123.96492632234019,126.48197174072266,319500
2024-02-06,126.31740568420186,127.20805395014796,125.17505729048875,126.9466781616211,369700
2024-02-07,127.21775641252626,128.1955300337722,125.24282830267967,127.5953140258789,393000
2024-02-08,127.4404150760117,130.5383255987766,127.34359937104924,127.90509796142578,620700
2024-02-09,127.89543870730267,134.76894102535888,127.3145739470146,134.52691650390625,650900
2024-02-12,134.72049474500278,135.98870051220734,133.12312449577541,133.21994018554688,491300
2024-02-13,132.32930021222504,132.9488822581375,130.67384635486445,131.59353637695312,275900
2024-02-14,131.91304874371144,133.07477834257196,130.85782530435176,132.7940216064453,335000
2024-02-15,132.7939558437664,133.41353776272464,130.2769107607478,130.73190307617188,471400
2024-02-16,131.05141105332157,133.59751331676136,130.73193696622823,133.11346435546875,453900
2024-02-20,132.7649142640081,135.66920728256332,132.58097334264656,135.2335662841797,373000
2024-02-21,134.6430432067918,135.6401827546635,134.5559179504535,135.53369140625,276300
2024-02-22,135.98871968077944,137.87650772141765,135.6014864111109,136.95681762695312,295700
2024-02-23,137.44086687732337,137.5183164858138,136.1145774154304,136.85032653808594,190300
2024-02-26,136.985826270642,137.52795862593183,136.30816082652976,137.39242553710938,199200
2024-02-27,137.39245476737844,137.64415490816972,135.34009190799827,135.8338165283203,244600
2024-02-28,135.194869665944,136.7341565973834,134.88508601058652,135.93063354492188,189600
2024-02-29,136.1435940131674,137.11169178239248,135.36911284338737,135.97901916503906,250600
2024-03-01,135.41752898322991,136.298486780481,135.10773058753682,135.81443786621094,151400
2024-03-04,136.20170952806765,137.58608257287685,136.0758520614475,137.4311981201172,260300
2024-03-05,137.73127267874108,138.64128693816335,137.21818204685397,137.97329711914062,190200
2024-03-06,138.37021994084103,139.05757592063267,137.93457885855102,138.50576782226562,184000
2024-03-07,139.8901458387967,140.5097279007667,139.25119768276474,140.0353546142578,250100
2024-03-08,140.09344450787563,140.44196032011527,138.40894895338388,138.52511596679688,185200
2024-03-11,138.23468763130884,138.8058765983286,137.45053072424915,138.18629455566406,226700
2024-03-12,138.24437886769354,138.29278671562085,136.9664825880185,137.8668212890625,242200
2024-03-13,138.43800441506068,138.43800441506068,136.43403460324666,136.65670776367188,336800
2024-03-14,136.85031074719467,137.10201086674357,135.88221291077477,136.43402099609375,235200
2024-03-15,135.5724352312238,137.86683749913811,135.2820176535157,136.50181579589844,599500
2024-03-18,136.43399733477477,136.79220351708804,134.4978019977233,134.81727600097656,299700
2024-03-19,134.44943456936542,135.84349784138894,134.44943456936542,135.059326171875,253000
2024-03-20,135.17550421499809,135.6014696220955,134.70113096218498,135.50465393066406,220000
2024-03-21,135.83380611845956,137.08266060945118,134.85603261400937,136.6373291015625,255800
2024-03-22,137.4795668432542,137.90553224987627,136.5502012033519,137.07296752929688,276000
2024-03-25,136.69539997271303,139.45448448167053,136.66635822183974,138.39926147460938,316300
2024-03-26,138.27341558365592,139.70619624368913,138.0701085385698,138.63160705566406,314200
2024-03-27,139.08660656444317,140.5193871456138,139.08660656444317,140.04502868652344,218200
2024-03-28,140.1999296948087,140.71302034415112,139.06724227584522,139.29959106445312,247800
2024-04-01,139.2028031090346,139.2028031090346,137.5860812427115,137.7506561279297,204400
2024-04-02,137.3149905478121,137.3149905478121,135.91125167032422,136.1436004638672,202600
2024-04-03,136.18234355557956,136.68575865051397,135.40786220306578,136.38565063476562,258700
2024-04-04,137.30533962645052,138.19598800416978,136.47277476458206,137.22789001464844,403600
2024-04-05,136.86968595043953,138.20565100866335,136.45339617162944,137.20851135253906,288300
2024-04-08,137.15041706598697,137.83777302127123,135.91125303201014,136.0274200439453,312500
2024-04-09,135.9403078901939,136.59862215595857,134.91412646050384,135.8338165283203,242600
2024-04-10,134.5462205437176,135.74666706614912,134.0331299203233,134.95281982421875,200700
2024-04-11,134.81727942272173,135.57239444157725,134.03312265483316,134.69143676757812,265300
2024-04-12,133.76206933999157,134.5171844314302,131.62258150491544,132.82301330566406,299200
2024-04-15,134.18804610778258,135.3497605952717,133.4329309523146,133.79112243652344,319600
2024-04-16,133.3942198007507,134.94318254299932,132.97794474232344,134.168701171875,281700
2024-04-17,134.44940820758697,135.03025794237436,133.93631762779228,133.98471069335938,565400
2024-04-18,133.97507218918878,134.99157797196605,133.81049731342517,134.67210388183594,246600
2024-04-19,134.62367866886507,135.4562433737092,134.34293680453402,134.89474487304688,276600
2024-04-22,135.0980663323081,136.6470141255359,134.80763400482732,135.843505859375,298800
2024-04-23,135.31102694214403,136.656682226633,135.069002504128,135.67889404296875,417200
2024-04-24,135.88281662716403,136.80520507967753,135.5818281146395,135.94107055664062,559200
2024-04-25,135.7759941871754,137.14502060339382,134.88273282197122,136.10610961914062,694400
2024-04-26,137.87323164710924,144.19403432783037,137.77613189586884,139.16458129882812,489500
2024-04-29,140.68896186966708,143.71829961506626,140.17436572617285,142.12596130371094,676700
2024-04-30,141.50452795897255,141.85406627729742,139.8733442016764,140.18405151367188,585100
2024-05-01,140.77636391358544,142.9318483462627,140.37827561400445,141.155029296875,359600
2024-05-02,141.52395235638076,142.46576363326017,141.06761019890962,141.67930603027344,356500
2024-05-03,142.8347262098354,142.85414912308485,140.63069223929037,142.54344177246094,303300
2024-05-06,143.46583362092616,144.74747925029178,142.88327954740367,144.70863342285156,260200
2024-05-07,144.00958866873592,146.00971937546657,144.00958866873592,145.368896484375,392900
2024-05-08,145.36887962927,146.4854527186998,145.13584910988936,146.40777587890625,223500
2024-05-09,146.6116820419674,147.3204628465896,144.3105630316223,144.7474822998047,299100
2024-05-10,144.62126017257594,144.6698100517693,143.78625262261644,144.1746368408203,186300
2024-05-13,144.21346995257653,145.13585840929454,142.59200470826642,143.57264709472656,167500
2024-05-14,143.9901756525385,143.99987970355167,143.18429495809386,143.60179138183594,137600
2024-05-15,143.6600474298775,144.02899393523714,142.50462840164852,142.9998016357422,211100
2024-05-16,143.08718529410942,143.6017814537863,142.17450084023903,143.2522430419922,235500
2024-05-17,143.55320979655946,143.86390229710423,142.85413315115838,143.37843322753906,169500
2024-05-20,143.30077614301211,144.09695263816212,142.7667571298435,143.86392211914062,163400
2024-05-21,143.64060931065208,144.35909414501361,142.81530585917272,144.27171325683594,280400
2024-05-22,143.7668346921676,144.50474243328088,143.18426581237048,144.4658966064453,283300
2024-05-23,144.33967093846064,144.62123648711966,143.27163303249756,143.42698669433594,171700
2024-05-24,144.1649049429506,144.50473925123936,143.07745886097342,143.78623962402344,162300
2024-05-28,143.32989260159044,143.4852462695525,141.5822156907114,142.44635009765625,318400
2024-05-29,141.41714913451602,142.43663725250155,140.3102801303625,140.6306915283203,229700
2024-05-30,140.91228668269574,142.70851373087208,140.78605995699684,141.89292907714844,328100
2024-05-31,141.8443657942061,143.5338036875814,141.6793080690731,143.3978729248047,358900
2024-06-03,144.18433298516325,144.18433298516325,142.0288488421779,143.85421752929688,266200
2024-06-04,143.3590163849127,144.07751597180606,142.4366280767618,143.88333129882812,287900
2024-06-05,143.4270158524189,143.89306211733856,142.8056158940781,143.62120056152344,229200
2024-06-06,143.70858196047192,143.70858196047192,141.17443223714181,141.71817016601562,197600
2024-06-07,141.53366068244839,142.07738368524713,141.2229533577973,141.32005310058594,179100
2024-06-10,140.62099421122554,141.57250958640344,139.80540960393014,141.35890197753906,125800
2024-06-11,140.6986800796317,141.50456068926422,140.15495697321543,141.2715301513672,147700
2024-06-12,141.9900224631697,142.05798044025738,139.88308812796836,141.59193420410156,221300
2024-06-13,141.6501881317032,142.27158805169188,140.805476550794,141.59193420410156,232400
2024-06-14,140.87341987566188,141.15500025023965,139.5043934580447,140.54330444335938,141500
2024-06-17,140.65981624752195,142.4172120684738,140.3685466316063,142.077392578125,303800
2024-06-18,142.22305259413477,143.39789457614634,142.2133485436648,142.4269561767578,219900
2024-06-20,142.3977978909361,143.24250937170754,141.436563753432,141.57249450683594,199900
2024-06-21,141.6307756362361,142.8638715174382,141.0870525181657,142.58230590820312,444100
2024-06-24,142.94153910100914,143.92218146002028,142.4075200677485,142.45606994628906,182900
2024-06-25,142.52401968431698,142.53373854866894,140.30057760299235,140.65011596679688,194500
2024-06-26,140.05783894105218,140.58213906374502,138.80533514968837,139.53353881835938,192400
2024-06-27,139.6888885498047,139.69860741462887,138.135396158235,139.6888885498047,377300
2024-06-28,139.60149156021046,140.12580647860236,136.0187272741163,136.71780395507812,435100
2024-07-01,137.2712545772139,137.36833951304502,134.36814387510577,134.51377868652344,306400
2024-07-02,134.45551784033776,136.41681715340104,133.7564411508368,136.31971740722656,259400
2024-07-03,136.78579030057608,137.2906675416146,136.4848018027494,137.11590576171875,143300
2024-07-05,136.89261727770193,137.3295366167457,135.66922534996536,136.8052215576172,207000
2024-07-08,137.53340696834337,138.35871046567937,137.38777214662196,137.39747619628906,249300
2024-07-09,136.766360792669,137.16444902591755,135.68861875591176,135.97018432617188,238400
2024-07-10,136.65956823532298,137.51399869592782,136.48480644947725,137.18386840820312,142000
2024-07-11,137.09648258623827,139.13545890652216,136.65956332198957,137.9606170654297,244500
2024-07-12,139.2422698494713,141.2618233593471,139.2422698494713,140.38796997070312,263900
2024-07-15,140.55302268784044,141.45600300897715,138.98010738595784,139.2616729736328,319900
2024-07-16,139.66948303288666,141.07734063154754,139.66948303288666,140.3588409423828,178800
2024-07-17,140.145223926781,141.53367333298914,140.145223926781,140.65011596679688,242300
2024-07-18,140.40738917518402,142.97066571318356,140.3976851256369,142.0288543701172,434200
2024-07-19,142.3298497313873,142.3298497313873,140.45594581987174,141.69874572753906,251200
2024-07-22,141.74729152284237,143.2716569904321,141.0287918281976,142.91241455078125,235700
2024-07-23,143.57262555200967,144.19402540159166,141.4365644950304,141.79580688476562,234500
2024-07-24,141.8249684790197,142.36869157146538,139.718019272778,139.9510498046875,250600
2024-07-25,139.1134168154453,140.30167233708127,137.54531009340042,137.80828857421875,558100
2024-07-26,139.40562054037346,147.35327797180082,138.64591810105864,142.84376525878906,562800
2024-07-29,142.76583084099468,144.48977767817135,141.39251700694314,143.95408630371094,390900
2024-07-30,143.54501837821707,144.05147671755117,141.62627871162664,141.95742797851562,411000
2024-07-31,142.687920277237,144.9767768202367,141.62628675803276,143.15542602539062,280600
2024-08-01,143.05804117385702,145.64881403519908,141.64575972559882,143.20413208007812,335300
2024-08-02,142.76584278576115,143.17491218000953,140.00948044813856,141.8990020751953,213500
2024-08-05,139.69779019041522,139.69779019041522,135.85057640594786,137.01934814453125,448500
2024-08-06,137.65246713764915,142.28860227483594,137.43819054803106,141.15878295898438,476000
2024-08-07,142.21066611828329,143.42813984840885,139.73676603783363,139.86338806152344,353600
2024-08-08,140.70103177550166,142.35679332552462,140.70103177550166,141.77239990234375,268600
2024-08-09,141.6263160680969,141.6263160680969,139.7367940818522,140.2042999267578,263200
2024-08-12,140.22376060481798,140.42828787630694,139.05498875394557,139.5614471435547,221100
2024-08-13,139.7757349256636,141.51916583268488,139.37641479063032,140.6133575439453,212000
2024-08-14,140.37957392769894,141.04187240037115,139.7562280691743,140.15554809570312,115700
2024-08-15,141.2269842783919,143.5060920440662,141.2269842783919,143.18467712402344,277500
2024-08-16,142.30807861002003,143.01907915033655,141.8210890883735,142.90220642089844,250600
2024-08-19,142.51262572122243,143.88592492526362,142.12302517326572,143.1457061767578,191200
2024-08-20,143.15544136166255,144.45083532458932,143.15544136166255,144.25604248046875,387200
2024-08-21,144.3144557805946,145.67803519496948,143.62293906523604,145.44427490234375,267300
2024-08-22,145.67803823477166,146.48642768244193,144.80144826543804,145.11312866210938,200400
2024-08-23,145.76571861816686,146.61307569653127,145.55144202289785,146.52542114257812,221400
2024-08-26,146.75915922191393,148.6973829226023,146.23321706296485,146.25270080566406,235500
2024-08-27,146.10658758715397,147.59677430031587,145.94101293699603,147.265625,208300
2024-08-28,147.00265865265132,148.01560524076524,147.00265865265132,147.59678649902344,249000
2024-08-29,148.5805139173331,148.93114698600922,147.27538549682706,148.31753540039062,187100
2024-08-30,148.23961278387767,149.447352191514,147.6941868777649,149.203857421875,178500
2024-09-03,148.15194689459446,148.41492538696468,145.83387210929124,146.13580322265625,362400
2024-09-04,145.7072750829975,146.97343598691867,145.7072750829975,146.807861328125,175800
2024-09-05,147.1487745746559,147.81107327566363,146.04817335838652,146.7981414794922,200600
2024-09-06,146.4669590943475,149.13565190287514,146.4669590943475,148.4149169921875,319100
2024-09-09,148.59998302653705,149.0772232245831,147.49938200179562,147.9571533203125,241500
2024-09-10,147.91819898327566,148.81425795867298,147.49939511007815,147.56756591796875,158100
2024-09-11,146.86629136229539,146.95396076989897,144.76250795288001,146.9149932861328,178000
2024-09-12,146.9637098345748,148.05456170073086,146.06765082141203,148.00587463378906,200400
2024-09-13,148.229880848657,149.02853597846607,147.94741858852652,148.31753540039062,138600
2024-09-16,149.0577660487323,149.1843880969392,148.11301992403,149.0090789794922,182900
2024-09-17,149.99278031830573,151.52193462791402,147.91820009450953,149.0480194091797,259900
2024-09-18,149.75899280719582,151.44398703270204,148.73632683455978,149.0869598388672,214200
2024-09-19,150.98623601631084,154.677610065008,150.98623601631084,152.8173065185547,412400
2024-09-20,152.2426587848195,152.2426587848195,150.4602753884125,151.8530731201172,663300
2024-09-23,152.1063064527266,152.82705629994214,150.71352354488388,151.9017791748047,315800
2024-09-24,152.1160493204721,152.99263943106746,151.96995839957702,152.55435180664062,246200
2024-09-25,153.2069113857245,153.76207173006424,151.81411358113382,153.0510711669922,284100
2024-09-26,153.83025116800434,154.92110293146314,153.59649084937433,154.25880432128906,371600
2024-09-27,154.5509862737545,157.34631621260434,154.14191686210978,155.72950744628906,354300
2024-09-30,155.14510798319304,156.24570900619995,154.7944749495995,156.02169799804688,289800
2024-10-01,156.36259442762125,156.36259442762125,154.9113751149142,155.80743408203125,192200
2024-10-02,155.70027309577677,155.94376782945204,153.84971906454047,154.61915588378906,186900
2024-10-03,153.8789526282023,156.2846820263738,152.564074990201,154.80422973632812,367000
2024-10-04,155.77818912671566,157.2683756689615,155.18406139759068,156.4015350341797,350500
2024-10-07,155.24251230852914,155.486007058675,153.89841653196711,154.56072998046875,223300
2024-10-08,154.16139329533596,154.8821430979149,153.01210522116568,154.54124450683594,205900
2024-10-09,154.2296012026817,155.88536275157466,154.00557530229472,155.54446411132812,152600
2024-10-10,153.93738118810276,155.2327750185027,153.93738118810276,155.07693481445312,168500
2024-10-11,156.75218568056042,157.70668095780067,156.17754162622376,157.3463134765625,194400
2024-10-14,160.696818031185,163.39472945404907,159.2066311881111,162.83956909179688,469700
2024-10-15,162.96617430440529,165.2452816100452,162.15776994657773,164.290771484375,397300
2024-10-16,164.31025487859057,164.79724438022347,161.6025944384509,161.71946716308594,330000
2024-10-17,162.63502251682706,163.94016577814568,162.18700046287847,163.52134704589844,238200
2024-10-18,164.69985199950776,164.69985199950776,163.41419260808226,164.24208068847656,171500
2024-10-21,164.0862524476999,164.1057361900711,161.97271968352462,162.00193786621094,217900
2024-10-22,161.40779833915946,162.04087873375656,160.52147389733162,161.49545288085938,228500
2024-10-23,162.17726202581613,163.6090125573943,161.83637824223325,163.28759765625,318100
2024-10-24,164.38138841449273,164.3911490539813,162.26215240803288,162.65280151367188,547300
2024-10-25,164.96731068659886,165.8755566583388,160.75816603816062,164.95755004882812,518900
2024-10-28,165.92439581087592,167.3990718969887,164.81107199246878,165.14312744140625,350000
2024-10-29,165.07475181943673,165.52399452591067,163.7172779631245,164.75247192382812,338100
2024-10-30,164.41068693257148,166.2173887714383,164.18605810635694,165.07476806640625,290300
2024-10-31,165.13335357792894,166.29551040666678,163.93213929101648,163.98097229003906,329900
2024-11-01,164.16653293752452,166.98890749293048,163.69775401702358,165.4458770751953,316300
2024-11-04,165.66073715780885,166.57874395431327,164.24465460053625,164.32278442382812,191800
2024-11-05,163.8149435034101,166.37363158046975,163.8149435034101,166.32479858398438,206200
2024-11-06,171.05154898002016,171.05154898002016,168.1119872286225,169.10812377929688,264100
2024-11-07,170.12378096512896,171.35430696476374,169.47922114643825,170.62185668945312,412300
2024-11-08,170.61208381104976,173.67860841546667,170.4070060757364,171.64727783203125,309200
2024-11-11,172.1942029189047,173.8641813863164,171.7840176058394,172.02816772460938,189100
2024-11-12,172.51645146428592,173.09265701480297,170.85623379576612,171.58868408203125,179800
2024-11-13,171.3933563232422,172.26253001280048,170.95388915917127,171.3933563232422,168400
2024-11-14,171.05155682058597,171.67658049046,169.8405818424337,170.02613830566406,198200
2024-11-15,168.92257425336157,169.69408202115162,162.28168847937133,162.59420776367188,620500
2024-11-18,162.4965371683572,163.89308346527008,160.4847427631967,162.78952026367188,384400
2024-11-19,162.52584959099735,163.74660018722383,162.31099629392224,162.99461364746094,287600
2024-11-20,163.0922544076903,164.98686142400987,161.77383800717232,164.78176879882812,221800
2024-11-21,164.74273502870884,166.24669318990152,163.81496756616045,165.90489196777344,205100
2024-11-22,166.19783911675128,168.04362806955587,166.19783911675128,167.49671936035156,241600
2024-11-25,168.02409483029683,169.94799873062775,167.7213511031337,168.46356201171875,270100
2024-11-26,168.81514749207574,168.81514749207574,167.1549297751935,168.0143280029297,140300
2024-11-27,168.6296004490124,169.81129356804752,167.50651587532045,167.7115936279297,167200
2024-11-29,168.5514742252474,169.43042360328997,168.06317398247072,168.91282653808594,117300
2024-12-02,168.93233680546206,169.05929962886407,166.84241249869427,168.7174835205078,170900
2024-12-03,169.39135453061394,169.39135453061394,167.08657674385032,168.3659210205078,160100
2024-12-04,167.86783536473908,168.84443572520686,167.02795845866723,168.55145263671875,173400
2024-12-05,167.98502374389864,168.40496965056505,166.5396593733903,167.09632873535156,245000
2024-12-06,167.5846236743002,168.61004210605205,166.85217342205542,167.1451416015625,209200
2024-12-09,167.54556559711838,169.4108759749143,166.24668525088177,166.7935791015625,301700
2024-12-10,166.72522539571543,167.36000970992765,164.25442751782737,166.91078186035156,287000
2024-12-11,167.85806889036164,170.02612280736926,167.73110607935809,168.2779998779297,418600
2024-12-12,167.65296930179122,168.56121531663356,166.78379564336024,167.62367248535156,178300
2024-12-13,166.91080015963254,166.99869063091506,165.84630915834467,166.2174072265625,153200
2024-12-16,166.15881199108833,166.93031984565312,163.66847768302608,163.70755004882812,236100
2024-12-17,162.99458751218418,163.00436305250057,159.02959259568405,159.27374267578125,511900
2024-12-18,159.85971564038562,160.57262973216018,154.21496674015316,154.50794982910156,468600
2024-12-19,154.80091960788565,157.78932926379758,154.52747269585277,155.15249633789062,404700
2024-12-20,155.00601023435632,156.0412042310304,153.7852597851201,154.4786376953125,730200
2024-12-23,153.49228296319632,155.1817974814259,153.28720522432621,154.81069946289062,194900
2024-12-24,155.0645922806042,155.68961586782322,154.22471543824068,155.6212615966797,100500
2024-12-26,154.71301920600163,155.8947121369805,154.71301920600163,155.13296508789062,164500
2024-12-27,154.1270910423129,155.84590247939389,153.92199838988887,154.44935607910156,145000
2024-12-30,153.3262778591197,153.80481746674624,151.37307686728377,153.06259155273438,221700
2024-12-31,153.59970058644706,154.54700411025723,152.52543424962974,153.42391967773438,317100
2025-01-02,153.96102932277924,154.41027201167452,149.85931109671645,150.55270385742188,239400
2025-01-03,150.43553065073638,152.07622719806142,149.29290988290282,151.8613739013672,250700
2025-01-06,150.39645072499704,151.0214743397327,147.89635626605445,149.3417205810547,369000
2025-01-07,152.271507414802,152.40823085213694,149.02920237154262,149.8397674560547,361200
2025-01-08,149.3124422881475,150.6503801368408,148.5311589473614,150.54295349121094,228600
2025-01-10,149.14641510020002,150.6894455288929,149.00969163951783,149.8593292236328,350800
2025-01-13,149.351489060231,151.08007590647148,149.351489060231,150.28903198242188,349300
2025-01-14,151.18751987696325,151.8125435961652,149.88863943358058,150.99220275878906,196900
2025-01-15,152.4668462198905,153.24812950251066,150.5624784634495,151.91995239257812,206100
2025-01-16,152.24223989964935,153.49228725350105,151.67580986403843,152.7500762939453,346300
2025-01-17,153.29697420180517,154.25403847264764,152.03715127326387,152.43756103515625,231900
2025-01-21,153.0528143054371,156.50997312910235,153.0528143054371,156.0900421142578,270900
2025-01-22,155.6115107453754,156.98852094407073,154.6349103040437,155.34783935546875,280000
2025-01-23,154.7521187567618,156.07052046490324,154.0391896764672,155.8849639892578,149800
2025-01-24,155.9142573921176,156.7150769217103,153.54112542846482,154.59585571289062,329600
2025-01-27,154.54701307242723,155.201333551255,152.98444647403235,154.75210571289062,317000
2025-01-28,153.88292658532947,156.59787440646915,153.88292658532947,154.71302795410156,204300
2025-01-29,155.0646061385479,155.10367849846844,152.95514575501196,153.43368530273438,265800
2025-01-30,154.1270963205914,154.96695843542625,152.9161063496536,154.42984008789062,274200
2025-01-31,154.205198107046,155.66033807623802,153.0918742405619,153.47274780273438,834100
2025-02-03,150.9628742010352,153.08209503629564,150.53316769033947,152.33010864257812,364600
2025-02-04,152.43754527468874,154.7520982407055,152.43754527468874,154.00987243652344,302400
2025-02-05,155.01866189479728,156.3702319730873,154.52896432375118,155.05784606933594,262600
2025-02-06,156.54649741836073,156.54649741836073,152.16860045521503,153.22634887695312,446600
2025-02-07,154.37224962460155,154.64647905482116,139.11327229734582,140.2297821044922,1221500
2025-02-10,141.28754664505917,141.6205523719065,137.99677816426612,140.32774353027344,621900
2025-02-11,139.33856189367694,140.12208105720353,137.36996794046337,139.35813903808594,377300
2025-02-12,138.06533442672804,140.53341437012955,137.04675510972507,138.78028869628906,423500
2025-02-13,139.80865498326042,140.8174307728779,138.54524183950096,139.8282470703125,665900
2025-02-14,140.72929960574803,142.31591505799216,139.7792850599418,141.80662536621094,512800
2025-02-18,141.80661410840983,144.2551019301506,140.93495304164546,143.87313842773438,489600
2025-02-19,143.12880426353559,144.45099367199094,142.6097260381441,144.01025390625,331000
2025-02-20,143.94170202111488,144.3824268363581,142.91333415595835,143.6576690673828,283100
2025-02-21,144.00044619853725,144.3530289976447,142.2081515484395,143.3246612548828,451900
2025-02-24,143.16798872554835,144.2551180375646,141.38549716336897,142.6097412109375,353300
2025-02-25,142.8741783567833,145.27369363811277,142.71747153615823,144.66647338867188,336700
2025-02-26,143.62828832707837,146.10615678438293,143.59890766903789,143.61849975585938,735600
2025-02-27,143.21696167310282,144.1473841616562,142.36489259702773,142.62933349609375,262800
2025-02-28,143.14841769573482,143.92213339132005,141.64994411305025,143.72625732421875,348700
2025-03-03,143.94172454669288,145.77318892599607,142.68809979212153,143.56954956054688,394100
2025-03-04,142.54115535917794,144.90150112160728,142.14940329945776,142.93292236328125,490100
2025-03-05,143.0406850641383,145.78299486445496,143.0406850641383,145.38143920898438,445100
2025-03-06,144.51952840338762,148.37834721716624,144.02983088781943,148.03555297851562,471700
2025-03-07,147.40875736971992,150.20003950079644,146.10616003817648,149.63198852539062,480200
2025-03-10,148.93662196596816,150.82684736023063,147.14432711634848,147.467529296875,391100
2025-03-11,147.24227347370973,147.4577416172004,144.2355379258109,144.84275817871094,304000
2025-03-12,145.18552675241813,145.18552675241813,142.56074026251753,143.02105712890625,299700
2025-03-13,143.39324790721705,144.16696350239528,140.79784178568258,141.77723693847656,238400
2025-03-14,142.237534136815,143.86333345171332,141.56174918397278,143.63807678222656,223600
2025-03-17,143.49116498279625,144.9504690034165,142.85456417100727,144.79376220703125,225200
2025-03-18,144.35304428256728,144.49015899982857,142.7762175618708,143.28550720214844,219900
2025-03-19,143.32468002289772,144.42161273286254,142.4726110403041,143.9514923095703,279600
2025-03-20,143.1190055816075,144.38241863949617,140.76844845978337,142.20816040039062,332800
2025-03-21,141.03288741960213,142.46281077035695,139.4266801328764,141.83599853515625,601900
2025-03-24,142.74685366750688,145.12677688467917,141.9241652673277,144.94070434570312,463800
2025-03-25,145.43038233248038,146.15512513486658,142.9231183481365,144.1767578125,325200
2025-03-26,144.0200657855328,145.63606187248132,143.2855193924863,145.4989471435547,630400
2025-03-27,145.22471455574868,146.80154137661276,144.0004705937233,146.27267456054688,312700
2025-03-28,146.2138845778836,146.90926165859608,142.7566211490686,143.9025115966797,239800
2025-03-31,143.55973295769965,146.01800923430915,143.08962750262015,145.32264709472656,372500
2025-04-01,145.8123486528671,146.93864705079392,144.34325598893645,146.02781677246094,240000
2025-04-02,144.950476293581,148.0159877703709,144.950476293581,147.4283447265625,247600
2025-04-03,143.7360409463089,146.9582596750277,143.4422343279696,145.606689453125,352900
2025-04-04,142.22778665727026,144.91133515916854,137.15451123234206,137.2916259765625,531600
2025-04-07,133.53071403995318,139.19161608543078,128.1538449204054,131.8755340576172,629900
2025-04-08,134.5493112573588,136.43953673434598,128.57499483049722,130.9059600830078,473800
2025-04-09,130.43584131939255,141.44424838924863,128.6141806532637,140.78805541992188,491800
2025-04-10,137.11532993446937,140.4158870228316,134.7354067381973,137.8596649169922,309000
2025-04-11,137.9674094052408,141.72829866799154,136.86070289224898,141.14065551757812,203000
2025-04-14,142.79581425798335,143.38344237476502,140.82722046414764,142.7860107421875,249300
2025-04-15,143.0896488919898,143.52057023933776,140.807656215774,140.97415161132812,250700
2025-04-16,141.09166473999363,142.81540979066028,139.63237551205373,142.01229858398438,307700
2025-04-17,142.40405194984112,142.75663480933545,137.8107011490633,140.8664093017578,390600
2025-04-21,140.347331860725,141.08187824351555,138.19266546008294,139.6421661376953,291600
2025-04-22,141.52260661323547,143.79481065396374,140.63135339324026,143.01129150390625,217800
2025-04-23,144.823151790697,146.24328667195422,144.1865509396658,144.99945068359375,537000
2025-04-24,144.88192409202932,148.86806971088194,142.4628317080614,148.33920288085938,424500
2025-04-25,147.74175781185858,149.84745131334506,144.52934305768525,145.98863220214844,220500
2025-04-28,146.71337821983508,147.91802992014826,145.2246935924771,146.6154327392578,235200
2025-04-29,146.67419752698908,148.84845573678555,145.93965123839249,147.2030792236328,359900
2025-04-30,145.99844818091182,146.8994899625974,144.17677252930838,146.8603057861328,556200
2025-05-01,145.82883124627438,147.8721067076984,144.36514960993844,145.66183471679688,445300
2025-05-02,150.2886872456017,150.29850528114721,145.18049076089244,149.316162109375,431600
2025-05-05,148.7562234700928,150.51462619082648,148.21594670199013,148.8053436279297,267600
2025-05-06,147.59705042912566,149.355437978684,146.78170385931236,148.25521850585938,312000
2025-05-07,149.1982877610097,150.44585281383766,147.96052575449374,148.71693420410156,318400
2025-05-08,149.10985945249004,151.84078718705774,148.5695827139862,150.6521453857422,302500
2025-05-09,151.1924328459138,151.5755460622504,150.23955882257493,150.61285400390625,231600
2025-05-12,153.0392239180569,153.82510139061208,150.98613045039815,152.7740020751953,352500
2025-05-13,153.55003919391905,153.55003919391905,150.49495171985274,150.92718505859375,339400
2025-05-14,150.90752912864178,150.90752912864178,148.30432613531156,149.78765869140625,350100
2025-05-15,149.65996739529265,152.7346909024297,149.65996739529265,152.21405029296875,278100
2025-05-16,152.4399964689241,154.3752135929202,151.86041763202704,154.23768615722656,278600
2025-05-19,153.59918681809296,155.54422220096674,153.55006665911085,155.288818359375,185400
2025-05-20,157.43029958325823,157.43029958325823,155.12180229520027,155.73085021972656,388100
2025-05-21,154.09032526701444,154.86636965019244,153.07851316508325,153.68756103515625,319800
2025-05-22,153.5991755437167,154.4832783830283,152.81329802579143,153.88404846191406,278900
2025-05-23,152.38107111925262,153.422352504288,151.53625537470865,153.1865997314453,260500
2025-05-27,154.25734853178614,155.64245601461047,153.92335544765425,155.36740112304688,352800
2025-05-28,155.36737887816963,156.03536495079385,154.48326114812755,154.62078857421875,364400
2025-05-29,155.0432217337395,155.86838638532782,154.05106054476073,155.53439331054688,232100
2025-05-30,155.44598590152702,155.97644460873903,153.77599055020596,155.6031494140625,335100
2025-06-02,154.75833131600515,156.2613301068848,152.51859016122646,154.13946533203125,349600
2025-06-03,153.4223415376803,154.66010346409962,153.24552697068694,153.5009307861328,397800
2025-06-04,153.72689030243944,153.75635939881812,147.63635056847724,147.75424194335938,831900
2025-06-05,148.90357998413,150.632498572694,146.41825295522108,149.79751586914062,482400
2025-06-06,151.64429332994897,151.75235166609104,149.52244371290558,150.60301208496094,264700
2025-06-09,150.0136191980335,150.4753066580511,148.6874500367206,148.9232177734375,388400
2025-06-10,149.47334506320036,150.2985097546009,148.1962959040132,149.83680725097656,323500
2025-06-11,150.29849644880608,150.8780752886444,148.92322208489034,149.23756408691406,380800
2025-06-12,148.7365731786107,151.88988615274167,148.7365731786107,151.62466430664062,337200
2025-06-13,150.2985051515068,151.00579343372206,148.06858195648448,148.49099731445312,361200
2025-06-16,148.5695758002576,150.20025395390124,148.4516844355203,149.01162719726562,346200
2025-06-17,147.9998142251002,148.58921108822153,146.49683048956007,146.81117248535156,379700
2025-06-18,146.48700188455078,148.06857491409224,146.48700188455078,147.0567626953125,383200
2025-06-20,147.6363309167007,148.10786637472864,146.35929693863002,147.6461639404297,570500
2025-06-23,146.85049066616682,151.22191491728302,146.85049066616682,151.07455444335938,356500
2025-06-24,151.84078941040858,151.84078941040858,150.4753180284472,151.15313720703125,246600
2025-06-25,151.14329517579995,151.80146318967252,150.0725448990236,151.21205139160156,264700
2025-06-26,151.80148526751537,152.83294856947208,150.4163778331554,151.7523651123047,658200
2025-06-27,151.92918872409527,153.3535832332286,151.50677339306424,153.06871032714844,643100
2025-06-30,153.27500695161754,153.73670945071478,151.88008141858438,153.66793823242188,315500
2025-07-01,153.66793021902077,156.9784367941011,153.20624273336693,156.20237731933594,338300
2025-07-02,156.21219361043833,157.69552619700025,155.8487164947486,157.48924255371094,293500
2025-07-03,157.76429959403765,158.51087491476963,156.99807321531225,158.19651794433594,235100
2025-07-07,158.10814793103435,159.50307359002397,157.71521661474983,158.11798095703125,313900
2025-07-08,158.05901225349746,159.7093565965001,157.02756390215916,157.22402954101562,342700
2025-07-09,157.10611832400417,157.18470756749457,155.30844371561136,156.90965270996094,252800
2025-07-10,156.37920902223024,157.52854871323547,155.53439331054688,155.53439331054688,361600
2025-07-11,155.7603190354981,155.7603190354981,153.86440405350666,155.11196899414062,292000
2025-07-14,154.36538707594116,156.13360757296107,153.92333569902758,154.77796936035156,276600
2025-07-15,154.95479334988428,155.21019713887813,151.34959626569866,151.43800354003906,254200
2025-07-16,151.2022641344678,152.8624265472358,150.83880194564915,152.24354553222656,261900
2025-07-17,152.00777788286257,153.6482890740105,151.78182817574609,153.27499389648438,397700
2025-07-18,154.08050734618482,154.43415142989176,152.18457753956116,153.61880493164062,243100
2025-07-21,153.65812006565358,153.90370586328876,152.49896229571195,152.7052459716797,205900
2025-07-22,153.35357548550758,156.54619042612177,152.48910879729814,156.3595428466797,449900
2025-07-23,157.24366585052525,158.99223535423732,156.3300789809644,158.8055877685547,450500
2025-07-24,158.559320268112,161.82979531304568,157.40675735764995,159.406494140625,431900
2025-07-25,159.63303970514875,160.65752157131263,158.38197744884806,158.58885192871094,296300
2025-07-28,158.79572064833397,159.5640858506177,155.80106845369062,156.3330078125,308500
2025-07-29,156.67779828906407,157.21959813532774,154.8750906357904,156.45123291015625,388200
2025-07-30,156.4315385130725,156.55958937255576,152.60940298667225,154.45150756835938,580700
2025-07-31,153.456563501654,155.0031544025075,152.86550639902828,154.79627990722656,679700
2025-08-01,154.6288158726098,155.76165777291718,138.9856590147076,139.24179077148438,1012300
2025-08-04,140.98538123418317,140.98538123418317,135.03547356824112,137.05490112304688,839000
2025-08-05,137.2617519084508,138.9659599251385,135.63636753338238,138.12863159179688,540800
2025-08-06,138.21729882019278,138.6605841437307,135.49846914211423,136.47369384765625,515300
2025-08-07,137.71491162131494,139.37970798596095,136.83818640949156,138.39462280273438,564000
2025-08-08,138.59163887027924,139.93135534040795,138.48327889728324,138.65074157714844,428700
2025-08-11,139.222090228796,139.5077583171329,137.12385398637957,137.7838592529297,349500
2025-08-12,138.12862654943748,138.98564573069308,137.15338694127408,137.399658203125,286100
2025-08-13,137.60654859738395,139.33044762978915,137.17310872138614,139.32058715820312,729900
2025-08-14,138.09908585404855,138.09908585404855,134.405016641309,136.27667236328125,875800
2025-08-15,136.29640019144338,136.87759690021682,135.8137029921251,136.65103149414062,770500
2025-08-18,136.81847442171076,137.4883401327873,135.3014499206359,135.83338928222656,529500
2025-08-19,136.20773671589527,138.4241784468644,136.20773671589527,137.50804138183594,333100
2025-08-20,137.8232781418471,139.14328874260568,137.18296372359896,139.07432556152344,519200
2025-08-21,138.53254347475354,139.78359091939785,138.14836082862038,138.54238891601562,270400
2025-08-22,139.15312448451428,141.19225798353852,139.08417633944555,139.32058715820312,356500
2025-08-25,138.8674588166062,139.4979127296023,136.88744301904194,137.47848510742188,245800
2025-08-26,136.9957973337368,138.06953652648775,135.95159446141804,137.62625122070312,442900
2025-08-27,137.01548945470773,138.47342629437426,136.95638675089546,137.3602752685547,729100
2025-08-28,138.07938928608468,138.07938928608468,135.35069910089788,136.8184814453125,320800
2025-08-29,137.09431078109077,137.78386744151146,136.28654870208595,137.1928253173828,370700
2025-09-02,135.37041901487592,136.46386429017952,134.13906239994887,134.37548828125,310600
2025-09-03,134.0503903916783,134.1488898889654,132.43485133034417,133.20321655273438,382300
2025-09-04,134.3163671782823,136.41458834161003,133.0258929963137,136.3948974609375,401800
2025-09-05,136.94654859153968,138.7197049562119,135.5772807659998,136.55250549316406,440800
2025-09-08,136.52295752982062,137.91193130257207,135.62652636886406,136.23728942871094,616100
2025-09-09,136.1978803964661,137.39968559639797,133.08502244977814,135.0059356689453,637100
2025-09-10,134.09965957050477,135.40982475360394,132.83875165602893,134.21786499023438,685100
2025-09-11,134.71040519706986,136.2175843964125,133.84352538471833,135.05519104003906,477500
2025-09-12,134.58232620679007,135.00592063066784,133.20321303157323,133.2130584716797,261300
2025-09-15,133.9420357302436,134.13904976383114,132.62202517087903,132.8387451171875,298000
2025-09-16,132.77962562814162,133.40023410540573,132.0999294759084,133.19337463378906,474800
2025-09-17,133.40021279614652,135.0256121123868,132.18856241946168,132.64169311523438,377400
2025-09-18,132.88798558145595,133.48888814617573,132.07037810452255,132.49395751953125,254800
2025-09-19,132.65158018177598,133.0850200863436,131.35126046807318,132.4348602294922,877200
2025-09-22,132.11962230163485,132.92739938115005,130.691251766929,130.74050903320312,402100
2025-09-23,131.0261738005905,131.95215627068484,130.00169183165633,130.0509490966797,319700
2025-09-24,130.03125417731107,131.3217134615017,129.38109429893456,129.53871154785156,353300
2025-09-25,129.53870141670419,130.54349251095573,128.32705085173455,128.8688507080078,388700
2025-09-26,129.37123644965243,130.4548211118124,129.00675974879576,130.31690979003906,274400
2025-09-29,130.42527680922657,130.7010994676822,129.4007947965638,130.29722595214844,540600
2025-09-30,129.74557555443596,131.76498814664785,129.74557555443596,131.66648864746094,310400
2025-10-01,131.34141139667054,132.35604794922318,130.33662028487404,132.1393280029297,310100
2025-10-02,131.66648573117217,132.38559368725765,130.97692912730892,131.19363403320312,398500
2025-10-03,130.49423360821496,131.58767874762543,130.45482178395852,131.23304748535156,402000
2025-10-06,130.90797079558112,131.21334480064905,129.45004891757588,129.9130401611328,447100
2025-10-07,130.13959122892322,130.53361925058735,127.8738925263408,128.6422576904297,438800
2025-10-08,129.22345454639873,130.04107697266164,128.31717806976172,129.6470489501953,361300
2025-10-09,129.73571125193516,130.8587077217144,128.258083526899,128.66197204589844,554200
2025-10-10,128.98704858156654,130.04108184834632,127.95270619480443,128.97718811035156,426000
2025-10-13,129.03630601031335,130.37602238234368,128.2186835523413,128.2777862548828,311400
2025-10-14,128.10046262811323,129.10525366111025,127.11537750629039,127.86405181884766,337400
2025-10-15,127.86406447402499,128.44526114593418,125.95299674355027,126.18942260742188,438300
2025-10-16,126.5243419047704,127.56852978216413,125.94313774513942,127.23360443115234,352700
2025-10-17,127.23361868299475,128.15960125344935,126.92824465044238,127.41092681884766,339700
2025-10-20,127.67688307805489,128.1497197271898,126.11060134384137,128.06106567382812,240500
2025-10-21,128.66197064438,129.80467301345007,127.19418837559832,128.62257385253906,311600
2025-10-22,128.70137488096933,130.13960588126338,128.04136960320932,128.12017822265625,357500
2025-10-23,128.2783732274755,130.04820070636612,128.1992726855578,129.29676818847656,378600
2025-10-24,129.27699821696652,129.41542040316887,127.09188897025071,127.42807006835938,489300
2025-10-27,127.68513804202082,128.43657062662018,127.00290900843953,127.32919311523438,521700
2025-10-28,127.29953156353623,127.65547648827675,126.03395296154486,126.6568603515625,413500
2025-10-29,125.84608767724626,126.06361040803851,122.02957306455488,122.9095458984375,651100
2025-10-30,122.6425973459498,124.10591981246533,121.65386309537952,122.95899200439453,702600
2025-10-31,113.99116650647636,116.76950718685458,102.0670345015107,114.70305633544922,2758200
2025-11-03,114.78215353846566,114.78215353846566,107.07003104374891,111.84561920166016,1661000
2025-11-04,113.0716415827989,114.69316503673943,111.26225622049985,112.89366912841797,1029100
2025-11-05,113.04198468525121,114.73271928879292,111.49955417930168,114.26801300048828,896900
2025-11-06,113.72420954512762,115.64235639440284,112.51796010267421,114.84148406982422,880300
2025-11-07,114.9205721317626,115.60279355716192,113.39792065465342,114.91068267822266,697200
2025-11-10,114.68328006091402,115.45449154553131,112.71570107535919,115.06888580322266,514000
2025-11-11,115.64235215314066,118.16362740289492,115.64235215314066,116.93759155273438,484800
2025-11-12,117.00680708571316,118.32182544371216,116.58165860151216,116.82884216308594,547500
2025-11-13,116.96725913412712,120.50692184487997,116.96725913412712,118.8458480834961,679400
2025-11-14,118.42069332802943,119.33033453666947,117.05624283023447,117.27376556396484,521200
2025-11-17,117.15511423578639,118.1438484441411,116.24548057452645,117.99553680419922,820200
2025-11-18,118.31193671929118,118.75686408712447,116.72995598156568,117.96587371826172,817400
2025-11-19,118.16362210922091,118.16362210922091,116.38389759577892,116.6706314086914,598900
2025-11-20,116.67063483535937,118.26249749040201,116.04773500908134,117.24410247802734,507400
2025-11-21,116.79916971414367,120.86286792776397,116.79916971414367,120.1509780883789,509100
2025-11-24,119.48852930748254,121.02107037008182,119.08315219875638,120.10154724121094,740000
2025-11-25,121.0309595133857,122.68214385066395,121.0309595133857,122.04935455322266,543600
2025-11-26,121.63407548431789,123.11717675407199,121.63407548431789,122.41517639160156,538000
2025-11-28,122.23721179455744,124.65961521692697,122.23721179455744,123.34459686279297,315700
2025-12-01,123.47312464549341,123.55222519221778,121.64396787729149,121.89115142822266,536800
2025-12-02,122.37563109798752,122.46462110038372,119.4390968008952,120.2300796508789,325400
2025-12-03,120.08176988930819,122.86011822072538,120.04222715811682,120.68489837646484,543100
2025-12-04,120.82332005860296,122.6821452414219,120.55636513524256,120.64534759521484,708000
2025-12-05,120.61568357957054,122.11856379579517,119.26112254625717,120.53659057617188,537000
2025-12-08,119.55773823925648,120.72444490270962,117.95599365521366,118.71731567382812,496600
2025-12-09,118.25260671307173,118.49979025868578,114.06037589162156,114.41632080078125,640300
2025-12-10,114.86125658975384,116.47289825316335,113.83297205936897,115.84999084472656,734700
2025-12-11,116.6310870053096,117.33308739219939,115.84010415999195,116.68052673339844,389700
2025-12-12,117.18477675810965,120.26963024864754,116.32458281214376,120.10154724121094,656400
2025-12-15,120.11144352151473,121.08039889052128,119.12270924260135,120.95186614990234,588600
2025-12-16,121.28802692871906,122.45473362902362,118.17351257639858,121.44622802734375,644800
2025-12-17,120.73433285185864,123.19627887906455,118.72720364799784,122.2372055053711,567300
2025-12-18,122.2767604710972,122.72169540087228,120.65523693661119,121.23859405517578,457100
2025-12-19,121.95048213130443,122.92933449703057,119.89392056770684,120.02245330810547,1300400
2025-12-22,120.02244905131522,122.30642273678362,119.70605439556444,121.35723876953125,527800
2025-12-23,121.48577032424926,121.6439638690421,119.95322934159698,120.81343078613281,311700
2025-12-24,121.14961134349309,121.78240068560056,120.3882892593289,121.36713409423828,198000
2025-12-26,120.99141254975284,122.08890816765887,120.34873378036154,121.86149597167969,306000
2025-12-29,121.90103810595791,122.90954365167185,120.9419647432383,121.82193756103516,400200
2025-12-30,121.41656795360201,122.89966931682952,121.04084411378047,121.35723876953125,289800
2025-12-31,120.15097596397585,121.94058998507745,119.98289296138277,120.58602142333984,314300
2026-01-02,120.36850209754444,121.61430932967109,119.4193181494529,121.15949249267578,295100
2026-01-05,120.38828287586783,123.17651312401219,120.38828287586783,121.61431121826172,435700
2026-01-06,120.8430922091253,121.46599202442482,118.7568624940921,119.20178985595703,777200
2026-01-07,119.31055741898699,120.57613602320409,116.28503309681528,119.0831527709961,478500
2026-01-08,118.56900865138992,121.98014631699301,118.17351344536358,121.06062316894531,330000
2026-01-09,120.70467850674399,123.5621198728979,120.09166055886544,122.4547348022461,429100
2026-01-12,122.60303947816963,123.88839694168902,121.59453392415777,123.72030639648438,477300
2026-01-13,123.64121411549613,124.02681984811237,121.15948917361368,122.10867309570312,351900
2026-01-14,122.71179941985773,125.7274416797615,122.71179941985773,125.42092895507812,611700
2026-01-15,125.70766789113175,125.78676843900955,123.11718152395939,123.7005386352539,381000
2026-01-16,122.60304567683241,123.78952374665012,121.85160554277793,123.30504608154297,363400
2026-01-20,123.49289879622381,124.11579860493296,122.0493478196131,122.42506408691406,275100
2026-01-21,122.90955081825824,124.20479780070094,122.50417370291805,123.60166931152344,421000
2026-01-22,123.64120901396967,124.98588806730808,122.66235676992284,123.06774139404297,369700
2026-01-23,122.93921055756546,124.85735737798285,122.4745118058816,124.58051300048828,429500
2026-01-26,124.99577817123766,125.55935637440064,123.69064930373163,124.92656707763672,315400
2026-01-27,123.54234245634069,124.87713973871088,122.77113094244734,123.33470916748047,303100
2026-01-28,122.80078648003611,123.6609879626866,121.8614919932062,122.3064193725586,347800
2026-01-29,122.88978028418853,123.86862507511535,121.20892754069328,122.4547348022461,386000
2026-01-30,121.52533188143772,123.60167232496788,121.27814831569736,123.54234313964844,512700
2026-02-02,122.80078342815366,124.49152553193812,122.80078342815366,123.42369079589844,489100
2026-02-03,122.51405462375108,126.48876266797768,122.29653189940339,123.22593688964844,658700
2026-02-04,124.77433039015442,129.44927260782487,123.77184577350829,128.26812744140625,589400
2026-02-05,126.71975064755804,128.1192596554473,121.05225107397254,123.05722045898438,2144200
2026-02-06,126.58078326238557,134.97782150042084,126.58078326238557,133.31031799316406,1045700
2026-02-09,132.5857587104382,138.531180271334,132.2582131007177,137.43936157226562,1043400
2026-02-10,136.78427392403074,139.88104683101494,136.78427392403074,139.126708984375,622100
2026-02-11,137.99519392074043,139.50388475135443,137.56840169460276,138.9678955078125,584300
2026-02-12,139.11678651599092,140.94308767923593,138.3525134196047,139.46417236328125,572700
2026-02-13,139.46416820425452,141.86615414747763,139.36492159879577,141.51876831054688,471900
2026-02-17,138.2234773285034,142.55102629654255,138.2234773285034,140.59568786621094,614700
2026-02-18,140.41703714664675,142.04482998774162,139.791721402891,140.66517639160156,582000
2026-02-19,140.5956812663536,142.25326464590432,139.98030082414553,142.09445190429688,525500
2026-02-20,142.0547550361601,144.0597244456509,140.94309602664507,143.97039794921875,664500
2026-02-23,142.42199361111417,145.15152505885825,142.06467252487357,144.63539123535156,513500
2026-02-24,144.98279666295065,145.8165408414096,142.77931908758302,143.06715393066406,429800
2026-02-25,141.3500320156877,142.5907281428982,139.3847584456305,141.61801147460938,348900
2026-02-26,142.45178416412276,142.8488009040386,139.9505362960431,140.73464965820312,331300
2026-02-27,140.47658357934912,142.9381205686862,139.9505296087492,142.64036560058594,344600
2026-03-02,141.93563886113196,142.2830398395081,140.56590547180699,141.60809326171875,335000
2026-03-03,139.5931967078321,140.26814325067423,135.90088396317486,138.71974182128906,347300
2026-03-04,138.302888395737,138.47162126788456,134.9976717766612,136.02000427246094,389000
2026-03-05,134.98775502807862,135.32522078079646,133.40959299752922,133.72720336914062,452300
2026-03-06,133.0026313554941,133.0026313554941,130.02496050425168,131.096923828125,398500
2026-03-09,129.9951790988654,132.98276993154295,126.58078092139597,132.75448608398438,545700
2026-03-10,132.3574660154593,133.1316591702968,130.42196798314936,131.14654541015625,503100
2026-03-11,130.8190202738326,132.28800044532838,129.0721101988683,131.03738403320312,563800
2026-03-12,130.29295237048808,131.8016279987067,127.68252279954663,127.90088653564453,620600
2026-03-13,129.1812869710477,129.1812869710477,126.10436937058473,127.69245147705078,660600
2026-03-16,128.51628506786432,130.4319280867629,125.06219070801843,128.08949279785156,370700
2026-03-17,129.00263581888095,130.04482370856644,127.28551643200822,128.5361328125,276700
2026-03-18,123.45423058912087,125.63786042046195,120.51626292882625,123.29542541503906,910500
2026-03-19,122.0944332187195,123.8909588849741,120.54603921873606,123.04728698730469,518500
2026-03-20,123.33512999241371,123.33512999241371,119.41452545613383,120.15894317626953,1481500
2026-03-23,122.59071811756196,125.39964869362488,122.0745842329971,123.21602630615234,455200
2026-03-24,122.2433152775169,124.28798013248851,121.95547285876513,123.22594451904297,405000
2026-03-25,124.50634549167631,125.62793211237509,122.78921864642815,124.88351440429688,337200
2026-03-26,124.28798636131239,126.3922023143744,123.19617519683187,123.76193237304688,442100
2026-03-27,123.01751427118627,123.28550132328671,120.85373975633635,121.08202362060547,381400
2026-03-30,121.64777727824665,123.01751071469691,120.19864504103799,122.44182586669922,562000
2026-03-31,123.46415851677581,126.01502957768723,122.67010992701152,125.08202362060547,557800
2026-04-01,126.39219982096562,127.68252689973865,125.38972274230011,125.80659484863281,380200
2026-04-02,124.2085781211438,126.14406117582702,123.32520302720033,125.07210540771484,297500
2026-04-06,123.66266876079281,125.25076596450165,123.66266876079281,125.07210540771484,461100
2026-04-07,124.38723692091199,126.22346576757812,123.8711106378232,124.67507934570312,376900
2026-04-08,130.4021481364575,131.68254004802253,127.19617800807119,131.03738403320312,645200
2026-04-09,130.24332882387228,131.45424955756675,126.39220287440348,130.42198181152344,424100
2026-04-10,131.2656579543429,131.71230555728022,129.87608426848973,130.521240234375,407400
2026-04-13,129.82646170678544,131.43439923843442,126.63042687940094,131.126708984375,396300
2026-04-14,130.2532453341348,131.73216065356567,129.99518597737963,130.03488159179688,315500
2026-04-15,129.83636721114993,130.0547309433663,127.64282491736233,128.68499755859375,407100
2026-04-16,125.9554827551545,129.3599535123959,125.9554827551545,127.33512878417969,393800
2026-04-17,128.68501330537714,131.31529853067389,128.68501330537714,129.65773010253906,401100
2026-04-20,129.59817078840075,131.00759986778516,128.69494031122633,129.945556640625,403600
2026-04-21,129.727195499975,131.2656618627598,125.7470474243164,125.7470474243164,310200
2026-04-22,126.33264680138942,126.33264680138942,122.04480110008107,123.62297058105469,458900
2026-04-23,124.44679072012924,126.49146323670142,123.51379231359721,124.01007080078125,440800
2026-04-24,123.48400922187079,123.48400922187079,121.6577005635927,123.15646362304688,440900
2026-04-27,123.11676141393268,125.2904634945878,122.6204829533344,123.80162811279297,359700
2026-04-28,125.18128618602746,125.70734016180099,122.79914797388655,124.8338851928711,354300
2026-04-29,124.20857785922294,124.96292327213307,121.87607050853111,121.9852523803711,448400
2026-04-30,122.51130595027864,125.14158341040145,120.97283963229869,122.75944519042969,764800
2026-05-01,126.26316859263083,127.5237125861033,117.0224658192811,118.13412475585938,989400
2026-05-04,117.79666211505766,120.84381172589876,116.58574139374336,119.7023696899414,739600
2026-05-05,120.00014032911528,122.78922301811379,119.92073395333378,121.1217269897461,628600
2026-05-06,122.74597925597982,125.94466800462597,121.24129756714204,122.19791412353516,917000
2026-05-07,122.5068295340525,126.02439054042098,122.13813047351475,124.66918182373047,749700
2026-05-08,124.78875603965518,125.4165335007669,119.9658058031768,120.56369018554688,794900
2026-05-11,120.79288554794945,120.79288554794945,119.0191585502766,119.53732299804688,706100
2026-05-12,120.02559365453983,120.43415267647454,116.72725880994862,117.6340560913086,696600
2026-05-13,117.58423293808002,118.33159035082205,116.01976505817387,117.46465301513672,679500
2026-05-14,118.31166263789773,119.73662439056804,116.62761485678391,117.57426452636719,531000
2026-05-15,117.49455009110837,117.5045093824967,114.06666843041747,114.26596069335938,447000
2026-05-18,115.19268785792543,116.90662874327987,114.76420263658683,115.40194702148438,433100
2026-05-19,115.48166685737739,115.63113986049136,112.05378509001822,113.20970153808594,575800
2026-05-20,113.66807993613209,115.04321484042606,111.15696237122292,114.85388946533203,562600
2026-05-21,116.08951407739181,116.08951407739181,112.37265332877841,115.1030044555664,345600
2026-05-22,115.39198749681162,116.38846404651633,114.30582410432685,115.82047271728516,405800
2026-05-26,115.79056648170686,116.55785764558959,114.96349676302546,115.96993255615234,344500
2026-05-27,116.52796630163347,117.69384200162881,114.32575411191587,114.89374542236328,464000
2026-05-28,114.40547144179769,115.93007936247552,112.95061657623215,115.58131408691406,510100
2026-05-29,114.65458561775299,116.84683851674723,113.34920381323532,115.44180297851562,559600
2026-06-01,114.28589767180515,114.72434218302038,111.63526640610465,111.9840316772461,706800
2026-06-02,111.5555436879482,112.65167394505289,110.84804626905223,111.78473663330078,452400
2026-06-03,111.29646253608045,113.61824699938008,111.29646253608045,112.13349914550781,372600
2026-06-04,114.54497230632394,115.35212345281656,111.14699134502068,112.15343475341797,337600
2026-06-05,112.69152600064275,114.18624078068318,111.58544405772433,112.96057891845703,466300
2026-06-08,111.86445781905672,112.24311616501637,110.55906839000053,111.54558563232422,422200
2026-06-09,112.88085932662787,115.74074968498803,112.27300803930216,115.49163055419922,444400
2026-06-10,115.74074928767203,116.13934141606836,112.97054577921195,114.26596069335938,496800
2026-06-11,114.70441351982215,116.59772043978674,113.85740999319688,116.16923522949219,395200
2026-06-12,117.48458764205596,118.05257897569324,115.96993901734801,117.30522155761719,342600
2026-06-15,118.28175862932584,120.31457162088154,117.14577601676713,117.66394805908203,576100
2026-06-16,118.08246565966249,120.62348378448296,113.36912845320511,120.22489166259766,474700
2026-06-17,121.19147655168894,121.918900150595,119.03908362900873,119.56721496582031,680500
2026-06-18,120.03556323646836,122.1182031608104,118.69032142639777,119.89605712890625,750600
2026-06-22,119.13873446752551,120.58363003359555,118.46113010611298,119.57718658447266,468400
2026-06-23,119.93591657137902,122.14809569936509,118.6604278207416,120.1850357055664,514100
2026-06-24,121.55021059109053,124.60939323702425,121.34094382937874,123.84210205078125,404900
2026-06-25,125.28699706013307,127.68850153642342,124.45991971828299,125.98452758789062,363500
2026-06-26,125.49625757990486,126.67210019838983,124.3204149614199,125.53611755371094,727400
2026-06-29,125.16742108368359,125.60587320209562,123.48337326752176,124.84854888916016,446600
2026-06-30,124.16097333332938,125.86494727656601,123.5033027809896,124.75885772705078,329300
2026-07-01,124.67914609082169,126.39307933521575,123.66273577346423,124.80868530273438,405600
2026-07-02,125.82508774888942,127.77818082996899,124.96812492977865,126.5325927734375,468400
2026-07-06,125.98452783897301,126.6023460237271,123.74245564919634,125.56600952148438,431400
2026-07-07,126.18381913439254,128.26645901687073,125.71548155556971,127.2400894165039,392700
2026-07-08,126.00445175211411,126.26353777363065,122.60647080352626,123.77234649658203,537700
2026-07-09,124.02146439127118,125.03787467960888,123.34386006655016,124.0114974975586,302100
2026-07-10,124.55956853594634,126.53259544666133,123.93179104742975,125.08769989013672,385200
2026-07-13,125.64571994715708,126.72191640641843,123.96167980892794,124.449951171875,391600
2026-07-14,127.96751666781715,128.95403392567474,127.5091383673285,127.82801055908203,739900
2026-07-15,129.25298235497795,130.3092450844948,127.99741214779503,128.65509033203125,466800
2026-07-16,129.56187796196684,134.6040465870392,129.56187796196684,134.27520751953125,579300
2026-07-17,135.351401437915,136.16850424088722,130.24944675099272,132.1427459716797,530800
2026-07-20,131.9135687694055,131.9135687694055,129.2928306127641,129.4522705078125,422900
2026-07-21,130.07008242817932,130.59821378154385,127.46927803301472,128.45579528808594,328800
2026-07-22,129.35261865201468,130.02025611657908,128.02730301458666,128.71487426757812,309900
2026-07-23,128.39600579528673,129.36258923692642,127.71839385448645,128.54547119140625,382800
2026-07-24,129.13338680160044,132.26232242316664,129.13338680160044,131.8936309814453,335900
2026-07-27,132.72071171310446,133.60757521827134,132.19258036761323,132.9000701904297,411200
2026-07-28,134.9030016293852,137.54365843276426,134.3549364800917,137.32443237304688,593100
2026-07-29,135.52081464440568,136.11870667337666,134.0759266469227,135.75,580000
2026-07-30,136.39999389648438,136.39999389648438,133.11000061035156,133.8699951171875,627000
2026-07-31,137.4600067138672,139.57000732421875,132.1699981689453,133.9600067138672,886500
2026-08-03,137.22999572753906,138.4600067138672,134.52999877929688,136.77000427246094,642500
2026-08-04,137.8699951171875,137.8699951171875,135.33999633789062,136.17999267578125,511900
2026-08-05,136.8699951171875,136.8800048828125,134.8699951171875,136.75,454800
2026-08-06,138.6199951171875,138.69000244140625,134.6699981689453,135.77999877929688,545000
2026-08-07,135.05999755859375,137.67999267578125,134.7100067138672,135.4199981689453,686300
2026-08-10,134.38999938964844,134.52000427246094,132.92999267578125,133.67999267578125,446700
2026-08-11,132.8000030517578,135.0500030517578,132.8000030517578,134.75,343700
2026-08-12,133.50999450683594,134.47000122070312,132.27000427246094,133.14999389648438,315100
2026-08-13,134.44000244140625,134.44000244140625,132.08999633789062,132.57000732421875,490800
2026-08-14,132.08999633789062,132.75,129.55999755859375,132.10000610351562,381600
2026-08-17,133.16000366210938,133.16000366210938,130.22000122070312,131.74000549316406,374500
2026-08-18,132.75,133.47000122070312,131.22000122070312,131.72999572753906,500100
2026-08-19,133.0500030517578,134.3800048828125,132.2899932861328,132.92999267578125,390400
2026-08-20,131.4499969482422,133.8300018310547,130.89999389648438,132.9600067138672,420900
2026-08-21,134.0399932861328,135.1300048828125,133.10000610351562,134.8000030517578,400500
2026-08-24,135.36000061035156,136.33999633789062,134.38999938964844,134.75,282300
2026-08-25,135.58999633789062,135.10499572753906,133.22000122070312,134.3249969482422,28735
