Date,Open,High,Low,Close,Volume
2023-08-14,117.3792460522628,118.30265808105469,116.94639918641944,118.30265808105469,145700.0
2023-08-15,117.95637129779684,118.24494075189612,117.33114971162514,117.43695068359375,249000.0
2023-08-16,117.09068198773566,118.46618273823462,116.85982348038,116.90792083740234,291100.0
2023-08-17,117.3119086093056,117.98523489377807,116.98487007521625,117.00410461425781,186600.0
2023-08-18,116.75400674690961,118.71625988618024,116.75400674690961,118.59121704101562,443100.0
2023-08-21,118.45655872220826,119.71663018629916,118.36998494954204,119.06254577636719,358800.0
2023-08-22,119.14912600366445,120.9189972448731,118.08142922757334,118.2641830444336,429600.0
2023-08-23,118.36999873369143,118.85094299292291,117.64858234484421,118.68742370605469,305000.0
2023-08-24,118.7835960654424,120.6785173813094,117.91789504060137,120.34185791015625,278400.0
2023-08-25,120.78431619879032,122.81390114359978,120.21680561182608,122.67923736572266,493000.0
2023-08-28,122.76579899926661,124.64148555554276,122.76579899926661,124.47796630859375,331900.0
2023-08-29,124.85313131114802,126.9308140115896,124.46836710148077,126.79615020751953,472400.0
2023-08-30,127.3251770257089,128.18125721019055,126.68071348703202,127.82536315917969,298900.0
2023-08-31,128.20051079181377,128.6333577241951,127.20015311081568,127.50794982910156,305800.0
2023-09-01,128.0273554739826,128.69104615956167,127.46945842518569,127.4983139038086,252000.0
2023-09-05,126.66146169919045,126.95003116428316,122.50611130451453,122.7081069946289,325300.0
2023-09-06,122.91971901854386,123.13132830124047,121.39031265265571,121.59231567382812,291100.0
2023-09-07,121.47689297594711,122.32335216826341,120.37071979304557,120.58233642578125,328600.0
2023-09-08,120.72660753492579,121.84239419256309,120.35147166964357,120.53422546386719,238800.0
2023-09-11,122.15020697473304,123.05438442733607,121.59231727500303,122.16944885253906,333500.0
2023-09-12,121.30373419984022,122.43876268831859,120.64002892393434,121.70772552490234,258000.0
2023-09-13,120.98631223028912,121.76543942444462,120.34184881441666,120.5919418334961,279300.0
2023-09-14,121.20755406828378,122.44839093096296,121.20755406828378,121.92897033691406,217900.0
2023-09-15,121.66927042883084,122.35221036140925,120.39957794288019,121.130615234375,589200.0
2023-09-18,121.5442225254737,121.5442225254737,120.15910083878411,120.8516616821289,175100.0
2023-09-19,120.8997477295657,120.8997477295657,119.3318650395971,120.53422546386719,218600.0
2023-09-20,121.04402623277237,121.2941192581564,119.81281032107518,119.88014221191406,206200.0
2023-09-21,119.5915814853835,119.61081602357613,117.53314098335909,117.56199645996094,335700.0
2023-09-22,117.66781895592811,118.21609509335627,117.45620231716168,118.00447845458984,341200.0
2023-09-25,117.34077068831786,119.39921139699219,116.84059192021189,119.3126449584961,258800.0
2023-09-26,118.82207240268929,119.4857777443957,118.53351028701881,118.889404296875,547000.0
2023-09-27,119.3126479723948,119.70701843321653,118.1872402117581,118.81246185302734,362400.0
2023-09-28,119.13949993050126,120.85166013877925,118.5623683479597,120.68814086914062,219300.0
2023-09-29,121.66926377216642,121.99630964992629,120.03405639924574,120.27452850341797,330900.0
2023-10-02,119.783963084746,120.69776148170621,119.26454246027548,120.28414916992188,244100.0
2023-10-03,119.29339878482428,120.53423572898005,117.82171067436374,118.1872329711914,236300.0
2023-10-04,118.8413150678333,119.90901178172992,117.66781004256849,119.49539947509766,208200.0
2023-10-05,119.2356870928497,120.16872002997181,118.11990034706665,119.03369140625,466700.0
2023-10-06,118.89902522929134,121.86164325055658,118.68740860796868,121.59231567382812,491700.0
2023-10-09,121.02479420203984,122.37143938534139,120.89975135607021,122.10211181640625,275700.0
2023-10-10,122.3906650650089,123.70845467606019,121.68849071662689,121.71734619140625,322000.0
2023-10-11,122.66961669921875,122.83313595291355,121.82315761659957,122.66961669921875,212900.0
2023-10-12,122.37144727599267,122.54458748699037,120.29376474402021,120.64004516601562,189300.0
2023-10-13,121.19793048814316,121.84239391280202,120.62079895354378,121.16907501220703,324900.0
2023-10-16,122.50611121132462,122.57344310797819,121.36146162958764,121.8808822631836,275200.0
2023-10-17,121.20754405224291,123.44873816422995,121.20754405224291,122.62152099609375,314400.0
2023-10-18,122.03479307787752,122.8042994522595,121.46727506334268,121.9482192993164,287300.0
2023-10-19,121.27488424535677,122.61190845722675,120.61117893923942,120.93822479248047,443900.0
2023-10-20,121.1306013926972,121.65964292581712,117.28304795510005,117.56199645996094,446500.0
2023-10-23,117.08107007558768,118.46619187200963,116.59050488291709,116.86945343017578,379000.0
2023-10-24,117.47543620540878,119.05293270920211,117.08106574877378,118.63932037353516,312100.0
2023-10-25,118.15678039457973,119.45965936903156,117.63562733217842,118.098876953125,431300.0
2023-10-26,117.02761412299786,121.0134603739244,117.02761412299786,119.12187194824219,576000.0
2023-10-27,119.16047518784606,119.51755620789429,116.15902425320523,116.94075012207031,364000.0
2023-10-30,117.66457150071054,118.0506115995379,116.63191847013125,117.90584564208984,283100.0
2023-10-31,118.23397832287583,118.60071235470951,117.577712385893,118.00234985351562,422900.0
2023-11-01,117.84794906764095,119.12187631379118,117.36540075677947,118.63932800292969,360500.0
2023-11-02,119.40174500651636,119.9518497393298,118.68757562918539,119.26663208007812,384300.0
2023-11-03,120.08696643881918,121.57321603943892,120.08696643881918,120.974853515625,278000.0
2023-11-06,120.89764432950582,121.34159523213705,120.39579735185238,120.82044219970703,173500.0
2023-11-07,120.27033050946704,120.62741150810513,119.83603265928002,120.20277404785156,205000.0
2023-11-08,120.52125543592591,121.10996492498091,120.06766623895945,120.75288391113281,175800.0
2023-11-09,121.30298351927328,121.30298351927328,119.73952451177246,120.04835510253906,118600.0
2023-11-10,119.90359356052024,121.3994961613825,119.5658112399359,121.33193969726562,195600.0
2023-11-13,121.01345529818798,121.1003178161299,120.02906006116073,120.1834716796875,183100.0
2023-11-14,121.55391115797988,123.39724915782807,120.936249936579,123.3875961303711,267400.0
2023-11-15,123.35863312683614,124.30443092733428,122.90503659818405,123.25247192382812,388600.0
2023-11-16,123.1945916907023,124.13072927781884,122.4128583792355,123.09808349609375,217000.0
2023-11-17,124.07280612990299,124.57466044313415,123.1559673820683,123.46479797363281,162700.0
2023-11-20,123.00156617709133,123.19458992664775,122.01717082521468,122.87610626220703,213900.0
2023-11-21,123.01121297209009,123.8218979529415,122.76028579193338,123.44551086425781,160600.0
2023-11-22,123.96664452975432,124.69046691672392,122.91469286164748,124.08246612548828,174800.0
2023-11-24,124.46851389312098,124.46851389312098,123.62888453508685,124.04386901855469,65900.0
2023-11-27,123.3586396115106,123.82188919108859,122.42249478837549,122.5672607421875,367500.0
2023-11-28,122.56726027052797,122.57691329757223,121.10996243713889,121.22577667236328,218000.0
2023-11-29,121.25472106402746,121.9881964499266,120.55985042087056,120.99414825439453,331800.0
2023-11-30,121.07136390507863,122.69272646591232,120.45370267838986,122.46110534667969,301000.0
2023-12-01,122.0075133766965,124.05351350614691,122.0075133766965,123.6288833618164,218300.0
2023-12-04,123.00155352374544,124.38164926101614,122.46110180679085,123.93769836425781,192000.0
2023-12-05,123.77363433441964,124.1982791787773,121.48635282699652,121.59251403808594,178000.0
2023-12-06,121.9785500946843,122.85679147312398,121.48634880167852,121.9592514038086,179500.0
2023-12-07,121.8337762366514,122.67341281575474,121.5925021192989,122.0750503540039,254000.0
2023-12-08,121.94961435364571,123.04982395525623,121.23544488804488,122.87610626220703,265800.0
2023-12-11,122.81820063225629,123.22353945445344,121.93030612631102,123.11737823486328,338000.0
2023-12-12,123.19455931396848,123.62885712022417,122.25841460977664,123.0304946899414,210300.0
2023-12-13,122.74097102242494,124.48780066384826,122.74097102242494,124.10175323486328,425000.0
2023-12-14,124.57467068526118,125.47220345317041,122.45145375097674,122.95330810546875,412900.0
2023-12-15,122.72168474321455,124.09212012074336,121.57321745592215,121.58287048339844,713000.0
2023-12-18,122.2873800147062,122.76992827805668,121.48634813039989,122.61551666259766,240500.0
2023-12-19,123.25248124676398,123.65782739941075,121.63111872548421,121.82414245605469,659100.0
2023-12-20,121.62147008946454,122.50936455594228,121.08101835055845,121.18717956542969,346400.0
2023-12-21,121.83378846573932,121.83378846573932,120.49230482765589,121.51531219482422,421900.0
2023-12-22,121.98821446560005,122.60587571449095,121.71798858959814,121.86274719238281,312200.0
2023-12-26,121.73728794976175,122.4418117272893,121.20648185963121,121.4381103515625,274700.0
2023-12-27,121.7179801620288,122.05576248364365,120.66602108831127,120.90729522705078,283100.0
2023-12-28,120.61777069727657,121.40914957794178,120.05801292816882,120.83008575439453,343600.0
2023-12-29,120.82043808829643,120.98450273280184,119.24732601714967,119.30523681640625,313500.0
2024-01-02,118.33049161771078,119.76848345240212,118.02166100831862,118.591064453125,313100.0
2024-01-03,120.78183530676975,122.8181896264616,118.8516421971549,120.98450469970703,531700.0
2024-01-04,120.81079207973853,121.52496149850643,119.79743770955358,119.8843002319336,353300.0
2024-01-05,119.45965144487354,120.02906224611816,118.69722427618132,119.864990234375,423000.0
2024-01-08,119.73953213187556,120.79149123065565,118.09887089459961,120.00975799560547,352400.0
2024-01-09,119.39209643843853,120.28963654792885,118.6779270344352,120.27998352050781,250300.0
2024-01-10,120.11591846241205,121.04241028792013,119.89395037419895,120.82044219970703,279600.0
2024-01-11,121.0038017297732,122.53830905966294,120.57916425839741,122.412841796875,323100.0
2024-01-12,123.42619088636619,123.50340037356722,121.52494960187714,122.01715087890625,231700.0
2024-01-16,121.48634060646516,122.39353364157216,121.12925962608607,122.38388061523438,257500.0
2024-01-17,121.54425168376522,122.82782439180721,121.49599391506591,122.26807403564453,336900.0
2024-01-18,122.87608540424257,125.47218996794025,121.9013358829781,124.63256072998047,444200.0
2024-01-19,125.18268267158516,126.87160167039863,124.0535067247466,126.23463439941406,418000.0
2024-01-22,126.33113669376287,127.20937811767521,126.00300739017096,126.61102294921875,266200.0
2024-01-23,127.19971649715869,127.24797426544636,125.78102352148032,127.22866821289062,217800.0
2024-01-24,127.50855793954003,127.67262259421514,125.9837035460705,126.21533203125,294400.0
2024-01-25,127.42168120715766,127.75947085008025,125.8292779789865,126.66890716552734,332300.0
2024-01-26,127.08390439522177,127.96214577452949,126.81367854408161,127.10321044921875,219900.0
2024-01-29,126.47591259694148,127.96215488401634,125.93546085618699,127.63402557373047,187800.0
2024-01-30,127.42170314326185,128.4447031848622,127.03567039306735,127.63402557373047,228400.0
2024-01-31,128.14711126677335,128.53435928082044,125.03952535355248,125.73655700683594,537500.0
2024-02-01,126.29804406272626,126.92730171682662,125.47515503321043,126.33676147460938,298800.0
2024-02-02,125.81399845204739,126.54007181280666,124.58451009166825,125.94953155517578,344800.0
2024-02-05,125.01047371963757,127.25645293560962,123.96492632234019,126.48197174072266,319500.0
2024-02-06,126.31740568420186,127.20805395014796,125.17505729048875,126.9466781616211,369700.0
2024-02-07,127.21774119888832,128.19551470320488,125.24281332521821,127.59529876708984,393000.0
2024-02-08,127.44043027936515,130.53834117170376,127.34361456285279,127.90511322021484,620700.0
2024-02-09,127.89540969408253,134.7689104528772,127.31454506556426,134.52688598632812,650900.0
2024-02-12,134.7205256063229,135.9887316640438,133.12315499117534,133.219970703125,491300.0
2024-02-13,132.32930021222504,132.9488822581375,130.67384635486445,131.59353637695312,275900.0
2024-02-14,131.91300327103065,133.0747324694231,130.8577801954245,132.79397583007812,335000.0
2024-02-15,132.7939868427026,133.41356890629376,130.27694117211416,130.73193359375,471400.0
2024-02-16,131.05141105332157,133.59751331676136,130.73193696622823,133.11346435546875,453900.0
2024-02-20,132.76495920474014,135.66925320639436,132.58101822111487,135.23361206054688,373000.0
2024-02-21,134.643058365309,135.64019802544166,134.5559330991619,135.53370666503906,276300.0
2024-02-22,135.9887045298492,137.87649236016304,135.60147130332354,136.95680236816406,295700.0
2024-02-23,137.44085155268917,137.51830115254398,136.11456223867728,136.85031127929688,190300.0
2024-02-26,136.9858566979064,137.52798917361454,136.30819110327124,137.3924560546875,199200.0
2024-02-27,137.39242389962342,137.64412398386563,135.3400615013445,135.8337860107422,244600.0
2024-02-28,135.194869665944,136.7341565973834,134.88508601058652,135.93063354492188,189600.0
2024-02-29,136.1436245676808,137.11172255417472,135.36914322408506,135.9790496826172,250600.0
2024-03-01,135.41754419742617,136.29850209365307,135.1077457669271,135.814453125,151400.0
2024-03-04,136.20170952806765,137.58608257287685,136.0758520614475,137.4311981201172,260300.0
2024-03-05,137.73130314278708,138.64131760349056,137.2182123974122,137.97332763671875,190200.0
2024-03-06,138.37021994084103,139.05757592063267,137.93457885855102,138.50576782226562,184000.0
2024-03-07,139.89013059583016,140.5097125902881,139.25118250942043,140.03533935546875,250100.0
2024-03-08,140.09344450787563,140.44196032011527,138.40894895338388,138.52511596679688,185200.0
2024-03-11,138.23470289544156,138.80589192553307,137.4505459017938,138.18630981445312,226700.0
2024-03-12,138.24439416826982,138.2928020215548,136.9664977471601,137.86683654785156,242200.0
2024-03-13,138.43797349969117,138.43797349969117,136.43400413539493,136.65667724609375,336800.0
2024-03-14,136.8503260525416,137.10202620024066,135.88222810784958,136.4340362548828,235200.0
2024-03-15,135.57242007632507,137.86682208776077,135.2820025310812,136.50180053710938,599500.0
2024-03-18,136.43399733477477,136.79220351708804,134.4978019977233,134.81727600097656,299700.0
2024-03-19,134.44943456936542,135.84349784138894,134.44943456936542,135.059326171875,253000.0
2024-03-20,135.17550421499809,135.6014696220955,134.70113096218498,135.50465393066406,220000.0
2024-03-21,135.83380611845956,137.08266060945118,134.85603261400937,136.6373291015625,255800.0
2024-03-22,137.47958214730536,137.9055476013454,136.55021640394727,137.07298278808594,276000.0
2024-03-25,136.69538490177803,139.45446910654107,136.66634315410667,138.3992462158203,316300.0
2024-03-26,138.27343080301986,139.7062116207552,138.07012373555634,138.63162231445312,314200.0
2024-03-27,139.08659141008025,140.5193718351404,139.08659141008025,140.04501342773438,218200.0
2024-03-28,140.1999450522203,140.71303575776633,139.06725750918295,139.2996063232422,247800.0
2024-04-01,139.20278768938965,139.20278768938965,137.58606600215256,137.75064086914062,204400.0
2024-04-02,137.3149905478121,137.3149905478121,135.91125167032422,136.1436004638672,202600.0
2024-04-03,136.18232831953642,136.6857433581489,135.40784705367142,136.38563537597656,258700.0
2024-04-04,137.3053243590496,138.1959726377349,136.47275958975655,137.22787475585938,403600.0
2024-04-05,136.86968595043953,138.20565100866335,136.45339617162944,137.20851135253906,288300.0
2024-04-08,137.15041706598697,137.83777302127123,135.91125303201014,136.0274200439453,312500.0
2024-04-09,135.94027734869056,136.59859146655273,134.91409614955109,135.8337860107422,242600.0
2024-04-10,134.54623575653343,135.74668241469655,134.03314507512525,134.9528350830078,200700.0
2024-04-11,134.81729469576712,135.57240980016735,134.0331378390438,134.6914520263672,265300.0
2024-04-12,133.76210007332836,134.51721533826313,131.6226117466809,132.8230438232422,299200.0
2024-04-15,134.18804610778258,135.3497605952717,133.4329309523146,133.79112243652344,319600.0
2024-04-16,133.3941894593336,134.94315184926018,132.9779144955909,134.16867065429688,281700.0
2024-04-17,134.44943883100882,135.03028869809586,133.93634813434798,133.9847412109375,565400.0
2024-04-18,133.9750570093757,134.99156267697953,133.81048215225894,134.67208862304688,246600.0
2024-04-19,134.62366344073803,135.45622805140553,134.34292160816344,134.8947296142578,276600.0
2024-04-22,135.09803598219477,136.64698342744765,134.80760371996035,135.84347534179688,298800.0
2024-04-23,135.31104215956182,136.65669759538656,135.06901769432713,135.6789093017578,417200.0
2024-04-24,135.88283187941434,136.8052204354619,135.58184333310518,135.9410858154297,559200.0
2024-04-25,135.7760094089554,137.14503597865468,134.8827479436081,136.1061248779297,694400.0
2024-04-26,137.87321652991102,144.19401851758371,137.7761167893172,139.16456604003906,489500.0
2024-04-29,140.68896186966708,143.71829961506626,140.17436572617285,142.12596130371094,676700.0
2024-04-30,141.50455876401378,141.85409715843193,139.87337465161463,140.18408203125,585100.0
2024-05-01,140.77634869572992,142.9318328954004,140.37826043918207,141.15501403808594,359600.0
2024-05-02,141.52393711432322,142.46574828977003,141.0675950059999,141.67929077148438,356500.0
2024-05-03,142.8347262098354,142.85414912308485,140.63069223929037,142.54344177246094,303300.0
2024-05-06,143.46583362092616,144.74747925029178,142.88327954740367,144.70863342285156,260200.0
2024-05-07,144.0096037848439,146.00973470152024,144.0096037848439,145.36891174316406,392900.0
2024-05-08,145.36889477978409,146.48546798558442,145.13586423611673,146.4077911376953,223500.0
2024-05-09,146.61166658666073,147.32044731656563,144.3105478188918,144.74746704101562,299100.0
2024-05-10,144.62127547863358,144.66982536296524,143.78626784030067,144.17465209960938,186300.0
2024-05-13,144.2134392987861,145.13582755944267,142.5919743991321,143.57261657714844,167500.0
2024-05-14,143.99016035248064,143.9998644024627,143.184279743667,143.60177612304688,137600.0
2024-05-15,143.66003210063693,144.02897856662815,142.5046131956969,142.99978637695312,211100.0
2024-05-16,143.08715481169418,143.60175086174465,142.17447055225648,143.25221252441406,235500.0
2024-05-17,143.5532250739488,143.86391760755848,142.85414835414977,143.37844848632812,169500.0
2024-05-20,143.30077614301211,144.09695263816212,142.7667571298435,143.86392211914062,163400.0
2024-05-21,143.64063969473372,144.3591246810753,142.8153360686792,144.27174377441406,280400.0
2024-05-22,143.7668498771203,144.5047576961729,143.18428093579104,144.46591186523438,283300.0
2024-05-23,144.3396862943476,144.62125187296155,143.27164827475897,143.427001953125,171700.0
2024-05-24,144.1648896439771,144.50472391620215,143.0774436774011,143.78622436523438,162300.0
2024-05-28,143.32992330845792,143.48527700970283,141.58224602315815,142.44638061523438,318400.0
2024-05-29,141.41714913451602,142.43663725250155,140.3102801303625,140.6306915283203,229700.0
2024-05-30,140.91225637602898,142.70848303788233,140.7860296774782,141.8928985595703,328100.0
2024-05-31,141.8443808876884,143.5338189608347,141.6793231449918,143.39788818359375,358900.0
2024-06-03,144.18436357277287,144.18436357277287,142.02887897251793,143.854248046875,266200.0
2024-06-04,143.35904679128393,144.07754653057066,142.43665828749494,143.88336181640625,287900.0
2024-06-05,143.4270158524189,143.89306211733856,142.8056158940781,143.62120056152344,229200.0
2024-06-06,143.7085664873753,143.7085664873753,141.17441703689698,141.71815490722656,197600.0
2024-06-07,141.53366068244839,142.07738368524713,141.2229533577973,141.32005310058594,179100.0
2024-06-10,140.62097903208888,141.5724943045568,139.80539451283065,141.35888671875,125800.0
2024-06-11,140.6986800796317,141.50456068926422,140.15495697321543,141.2715301513672,147700.0
2024-06-12,141.9900224631697,142.05798044025738,139.88308812796836,141.59193420410156,221300.0
2024-06-13,141.6501881317032,142.27158805169188,140.805476550794,141.59193420410156,232400.0
2024-06-14,140.8734351702916,141.15501557544053,139.50440860403918,140.54331970214844,141500.0
2024-06-17,140.65981624752195,142.4172120684738,140.3685466316063,142.077392578125,303800.0
2024-06-18,142.22303735719075,143.39787921333664,142.2133333077604,142.42694091796875,219900.0
2024-06-20,142.39781323867697,143.24252481049206,141.43657899757036,141.572509765625,199900.0
2024-06-21,141.6307756362361,142.8638715174382,141.0870525181657,142.58230590820312,444100.0
2024-06-24,142.94155441179788,143.92219687584785,142.40753532133726,142.45608520507812,182900.0
2024-06-25,142.52401968431698,142.53373854866894,140.30057760299235,140.65011596679688,194500.0
2024-06-26,140.05785425717647,140.5821544372045,138.80535032884424,139.53355407714844,192400.0
2024-06-27,139.6888885498047,139.69860741462887,138.135396158235,139.6888885498047,377300.0
2024-06-28,139.60150714084187,140.12582211775148,136.01874245488284,136.7178192138672,435100.0
2024-07-01,137.2712545772139,137.36833951304502,134.36814387510577,134.51377868652344,306400.0
2024-07-02,134.45556299070392,136.41686296237447,133.75648606645194,136.31976318359375,259400.0
2024-07-03,136.78579030057608,137.2906675416146,136.4848018027494,137.11590576171875,143300.0
2024-07-05,136.89258674062816,137.32950598220694,135.66919508579755,136.80519104003906,207000.0
2024-07-08,137.53339169445843,138.35869510013967,137.38775688891062,137.3974609375,249300.0
2024-07-09,136.76637614080624,137.1644644187289,135.6886339831031,135.97019958496094,238400.0
2024-07-10,136.65956823532298,137.51399869592782,136.48480644947725,137.18386840820312,142000.0
2024-07-11,137.09649774945188,139.13547429525167,136.65957843687883,137.96063232421875,244500.0
2024-07-12,139.2422698494713,141.2618233593471,139.2422698494713,140.38796997070312,263900.0
2024-07-15,140.55302268784044,141.45600300897715,138.98010738595784,139.2616729736328,319900.0
2024-07-16,139.66946784903956,141.07732529464843,139.66946784903956,140.35882568359375,178800.0
2024-07-17,140.145223926781,141.53367333298914,140.145223926781,140.65011596679688,242300.0
2024-07-18,140.40738917518402,142.97066571318356,140.3976851256369,142.0288543701172,434200.0
2024-07-19,142.3298497313873,142.3298497313873,140.45594581987174,141.69874572753906,251200.0
2024-07-22,141.74729152284237,143.2716569904321,141.0287918281976,142.91241455078125,235700.0
2024-07-23,143.572641002004,144.19404091845544,141.43657971516106,141.7958221435547,234500.0
2024-07-24,141.82498394212112,142.36870709384863,139.71803450615988,139.95106506347656,250600.0
2024-07-25,139.11340141214623,140.30165680221288,137.5452948637296,137.8082733154297,558100.0
2024-07-26,139.40563543189464,147.3532937123029,138.64593291142725,142.84378051757812,562800.0
2024-07-29,142.76584597383152,144.4897929937424,141.39253199421196,143.9541015625,390900.0
2024-07-30,143.54501837821707,144.05147671755117,141.62627871162664,141.95742797851562,411000.0
2024-07-31,142.687920277237,144.9767768202367,141.62628675803276,143.15542602539062,280600.0
2024-08-01,143.05804117385702,145.64881403519908,141.64575972559882,143.20413208007812,335300.0
2024-08-02,142.7658734897668,143.17494297199187,140.00951055934578,141.89903259277344,213500.0
2024-08-05,139.69779019041522,139.69779019041522,135.85057640594786,137.01934814453125,448500.0
2024-08-06,137.65245225788104,142.28858689391723,137.4381756914255,141.1587677001953,476000.0
2024-08-07,142.21065060341132,143.4281242007132,139.73675079285874,139.86337280273438,353600.0
2024-08-08,140.70103177550166,142.35679332552462,140.70103177550166,141.77239990234375,268600.0
2024-08-09,141.6263160680969,141.6263160680969,139.7367940818522,140.2042999267578,263200.0
2024-08-12,140.22377593602033,140.42830322987103,139.05500395736158,139.56146240234375,221100.0
2024-08-13,139.7757349256636,141.51916583268488,139.37641479063032,140.6133575439453,212000.0
2024-08-14,140.37961977723546,141.04191846622177,139.7562737151191,140.1555938720703,115700.0
2024-08-15,141.22695417806543,143.5060614579835,141.22695417806543,143.1846466064453,277500.0
2024-08-16,142.30807861002003,143.01907915033655,141.8210890883735,142.90220642089844,250600.0
2024-08-19,142.51261052991734,143.88590958757007,142.12301002349056,143.14569091796875,191200.0
2024-08-20,143.15544136166255,144.45083532458932,143.15544136166255,144.25604248046875,387200.0
2024-08-21,144.31447092085256,145.6780504782827,143.6229541329459,145.4442901611328,267300.0
2024-08-22,145.67805355296156,146.48644308563473,144.8014634914536,145.11314392089844,200400.0
2024-08-23,145.7657034384913,146.6130604286141,145.5514268655365,146.52540588378906,221400.0
2024-08-26,146.75915922191393,148.6973829226023,146.23321706296485,146.25270080566406,235500.0
2024-08-27,146.10658758715397,147.59677430031587,145.94101293699603,147.265625,208300.0
2024-08-28,147.0026738500185,148.01562054285245,147.0026738500185,147.5968017578125,249000.0
2024-08-29,148.58049863148904,148.9311316640923,147.27537034525355,148.31752014160156,187100.0
2024-08-30,148.23959762370004,149.4473369078232,147.69417177336692,149.20384216308594,178500.0
2024-09-03,148.15194689459446,148.41492538696468,145.83387210929124,146.13580322265625,362400.0
2024-09-04,145.70725993860023,146.97342071092024,145.70725993860023,146.80784606933594,175800.0
2024-09-05,147.1487592794206,147.81105791158635,146.04815817755215,146.79812622070312,200600.0
2024-09-06,146.46694403583126,149.1356365699861,146.46694403583126,148.41490173339844,319100.0
2024-09-09,148.59998302653705,149.0772232245831,147.49938200179562,147.9571533203125,241500.0
2024-09-10,147.91819898327566,148.81425795867298,147.49939511007815,147.56756591796875,158100.0
2024-09-11,146.8663066160262,146.95397603273526,144.76252298810905,146.91500854492188,178000.0
2024-09-12,146.96369468322857,148.05454643692235,146.06763576244578,148.005859375,200400.0
2024-09-13,148.22986559888577,149.02852064652984,147.9474033678148,148.31752014160156,138600.0
2024-09-16,149.0577507849576,149.18437282019818,148.11300475699895,149.00906372070312,182900.0
2024-09-17,149.99274960728783,151.5219036038018,147.9181698082619,149.04798889160156,259900.0
2024-09-18,149.75899280719582,151.44398703270204,148.73632683455978,149.0869598388672,214200.0
2024-09-19,150.98625109226774,154.67762550954814,150.98625109226774,152.81732177734375,412400.0
2024-09-20,152.2426893806918,152.2426893806918,150.46030562608314,151.8531036376953,663300.0
2024-09-23,152.1063064527266,152.82705629994214,150.71352354488388,151.9017791748047,315800.0
2024-09-24,152.11603410552289,152.99262412844,151.96994319924016,152.55433654785156,246200.0
2024-09-25,153.20688083707267,153.76204107071635,151.81408331019855,153.05104064941406,284100.0
2024-09-26,153.83025116800434,154.92110293146314,153.59649084937433,154.25880432128906,371600.0
2024-09-27,154.55100141706893,157.3463316298126,154.1419319653425,155.72952270507812,354300.0
2024-09-30,155.14510798319304,156.24570900619995,154.7944749495995,156.02169799804688,289800.0
2024-10-01,156.3625791144633,156.3625791144633,154.91135994387946,155.8074188232422,192200.0
2024-10-02,155.70031919221827,155.9438139979823,153.84976461310907,154.61920166015625,186900.0
2024-10-03,153.8789526282023,156.2846820263738,152.564074990201,154.80422973632812,367000.0
2024-10-04,155.77818912671566,157.2683756689615,155.18406139759068,156.4015350341797,350500.0
2024-10-07,155.24251230852914,155.486007058675,153.89841653196711,154.56072998046875,223300.0
2024-10-08,154.16140851662,154.88215839036292,153.0121203289736,154.541259765625,205900.0
2024-10-09,154.2295709430776,155.88533216711275,154.00554508664416,155.54443359375,152600.0
2024-10-10,153.93738118810276,155.2327750185027,153.93738118810276,155.07693481445312,168500.0
2024-10-11,156.75218568056042,157.70668095780067,156.17754162622376,157.3463134765625,194400.0
2024-10-14,160.696818031185,163.39472945404907,159.2066311881111,162.83956909179688,469700.0
2024-10-15,162.96615916864047,165.2452662626044,162.1577548858949,164.29075622558594,397300.0
2024-10-16,164.31027038182938,164.79725992941144,161.60260968621262,161.719482421875,330000.0
2024-10-17,162.63500734074424,163.94015048027507,162.18698532860228,163.52133178710938,238200.0
2024-10-18,164.69985199950776,164.69985199950776,163.41419260808226,164.24208068847656,171500.0
2024-10-21,164.0862524476999,164.1057361900711,161.97271968352462,162.00193786621094,217900.0
2024-10-22,161.40781358966652,162.0408940440798,160.52148906409494,161.49546813964844,228500.0
2024-10-23,162.17724687078498,163.6089972685699,161.83636311905678,163.28758239746094,318100.0
2024-10-24,164.38140383544402,164.39116447584829,162.26216763017436,162.65281677246094,547300.0
2024-10-25,164.96731068659886,165.8755566583388,160.75816603816062,164.95755004882812,518900.0
2024-10-28,165.92441114185215,167.3990873642211,164.8110872205768,165.1431427001953,350000.0
2024-10-29,165.07475181943673,165.52399452591067,163.7172779631245,164.75247192382812,338100.0
2024-10-30,164.41068693257148,166.2173887714383,164.18605810635694,165.07476806640625,290300.0
2024-10-31,165.1333689439496,166.29552588082868,163.9321545452615,163.98098754882812,329900.0
2024-11-01,164.16653293752452,166.98890749293048,163.69775401702358,165.4458770751953,316300.0
2024-11-04,165.66072177477935,166.5787284860389,164.24463934900223,164.32276916503906,191800.0
2024-11-05,163.8149435034101,166.37363158046975,163.8149435034101,166.32479858398438,206200.0
2024-11-06,171.05154898002016,171.05154898002016,168.1119872286225,169.10812377929688,264100.0
2024-11-07,170.12379617937486,171.35432228905614,169.47923630304092,170.6218719482422,412300.0
2024-11-08,170.61208381104976,173.67860841546667,170.4070060757364,171.64727783203125,309200.0
2024-11-11,172.1942029189047,173.8641813863164,171.7840176058394,172.02816772460938,189100.0
2024-11-12,172.51646680557812,173.09267240733516,170.85624898942092,171.5886993408203,179800.0
2024-11-13,171.39337158203125,172.26254534897026,170.95390437883552,171.39337158203125,168400.0
2024-11-14,171.05154146977196,171.67656508355398,169.84056660029717,170.026123046875,198200.0
2024-11-15,168.92255840068168,169.69406609606892,162.28167324991088,162.5941925048828,620500.0
2024-11-18,162.49655239968402,163.8930988274997,160.4847578059515,162.78953552246094,384400.0
2024-11-19,162.52583437609178,163.74658485803732,162.31098109913023,162.99459838867188,287600.0
2024-11-20,163.09229971471046,164.98690725735176,161.77388294793647,164.7818145751953,221800.0
2024-11-21,164.74273502870884,166.24669318990152,163.81496756616045,165.90489196777344,205100.0
2024-11-22,166.19783911675128,168.04362806955587,166.19783911675128,167.49671936035156,241600.0
2024-11-25,168.0241100492806,169.94801412387145,167.7213662946961,168.4635772705078,270100.0
2024-11-26,168.81513216055757,168.81513216055757,167.1549145944536,168.01431274414062,140300.0
2024-11-27,168.62958510670097,169.81127811822287,167.50650063518984,167.71157836914062,167200.0
2024-11-29,168.5514742252474,169.43042360328997,168.06317398247072,168.91282653808594,117300.0
2024-12-02,168.93235208368242,169.05931491856694,166.84242758790214,168.71749877929688,170900.0
2024-12-03,169.39133917889114,169.39133917889114,167.0865616010066,168.36590576171875,160100.0
2024-12-04,167.86783536473908,168.84443572520686,167.02795845866723,168.55145263671875,173400.0
2024-12-05,167.98505442378325,168.40500040714633,166.5396897893013,167.0963592529297,245000.0
2024-12-06,167.5846236743002,168.61004210605205,166.85217342205542,167.1451416015625,209200.0
2024-12-09,167.5455809247015,169.41089147314173,166.24670045963933,166.79359436035156,301700.0
2024-12-10,166.72521015388972,167.3599944100707,164.25441250187913,166.9107666015625,287000.0
2024-12-11,167.85806889036164,170.02612280736926,167.73110607935809,168.2779998779297,418600.0
2024-12-12,167.6529998247031,168.5612460049008,166.7838260080303,167.6237030029297,178300.0
2024-12-13,166.9107848371899,166.99867530040407,165.8462939336225,166.21739196777344,153200.0
2024-12-16,166.158796503823,166.9303042864774,163.66846242787886,163.70753479003906,236100.0
2024-12-17,162.99458751218418,163.00436305250057,159.02959259568405,159.27374267578125,511900.0
2024-12-18,159.85971564038562,160.57262973216018,154.21496674015316,154.50794982910156,468600.0
2024-12-19,154.80093483209816,157.78934478191135,154.5274878931726,155.1525115966797,404700.0
2024-12-20,155.00601023435632,156.0412042310304,153.7852597851201,154.4786376953125,730200.0
2024-12-23,153.49228296319632,155.1817974814259,153.28720522432621,154.81069946289062,194900.0
2024-12-24,155.06460748481138,155.6896311333145,154.2247305600973,155.62127685546875,100500.0
2024-12-26,154.71301920600163,155.8947121369805,154.71301920600163,155.13296508789062,164500.0
2024-12-27,154.12707581536193,155.84588708263334,153.92198318319998,154.4493408203125,145000.0
2024-12-30,153.32626257404377,153.80480213396478,151.3730617769222,153.0625762939453,221700.0
2024-12-31,153.59970058644706,154.54700411025723,152.52543424962974,153.42391967773438,317100.0
2025-01-02,153.96106053123728,154.4103033111957,149.85934147374135,150.552734375,239400.0
2025-01-03,150.43553065073638,152.07622719806142,149.29290988290282,151.8613739013672,250700.0
2025-01-06,150.39645072499704,151.0214743397327,147.89635626605445,149.3417205810547,369000.0
2025-01-07,152.27152292122494,152.408246372483,149.02921754778856,149.83978271484375,361200.0
2025-01-08,149.31242715408106,150.65036486716312,148.53114389248458,150.54293823242188,228600.0
2025-01-10,149.1463999140004,150.68943018558076,149.0096764672395,149.85931396484375,350800.0
2025-01-13,149.351489060231,151.08007590647148,149.351489060231,150.28903198242188,349300.0
2025-01-14,151.18748931990888,151.81251291278505,149.88860913904762,150.99217224121094,196900.0
2025-01-15,152.4668462198905,153.24812950251066,150.5624784634495,151.91995239257812,206100.0
2025-01-16,152.24223989964935,153.49228725350105,151.67580986403843,152.7500762939453,346300.0
2025-01-17,153.29695885699005,154.2540230320317,152.03713605455528,152.4375457763672,231900.0
2025-01-21,153.0528143054371,156.50997312910235,153.0528143054371,156.0900421142578,270900.0
2025-01-22,155.61149546068765,156.98850552412839,154.63489511528093,155.3478240966797,280000.0
2025-01-23,154.7521036088612,156.070505187951,154.03917459835165,155.88494873046875,149800.0
2025-01-24,155.9142573921176,156.7150769217103,153.54112542846482,154.59585571289062,329600.0
2025-01-27,154.54699783386062,155.20131824817142,152.98443138953712,154.75209045410156,317000.0
2025-01-28,153.88291140841034,156.59785896178445,153.88291140841034,154.7130126953125,204300.0
2025-01-29,155.0646061385479,155.10367849846844,152.95514575501196,153.43368530273438,265800.0
2025-01-30,154.1270810917156,154.96694312356598,152.9160912404324,154.42982482910156,274200.0
2025-01-31,154.2052134386578,155.66035355252484,153.09188946148322,153.47276306152344,834100.0
2025-02-03,150.96288932286944,153.0821103704106,150.53318276913035,152.3301239013672,364600.0
2025-02-04,152.43754527468874,154.7520982407055,152.43754527468874,154.00987243652344,302400.0
2025-02-05,155.01867714973034,156.3702473610244,154.52897953049455,155.057861328125,262600.0
2025-02-06,156.54651300778121,156.54651300778121,152.16861560867,153.2263641357422,446600.0
2025-02-07,154.37224962460155,154.64647905482116,139.11327229734582,140.2297821044922,1221500.0
2025-02-10,141.2875312819042,141.62053697254157,137.99676315893876,140.32772827148438,621900.0
2025-02-11,139.33856189367694,140.12208105720353,137.36996794046337,139.35813903808594,377300.0
2025-02-12,138.06533442672804,140.53341437012955,137.04675510972507,138.78028869628906,423500.0
2025-02-13,139.8086702399115,140.81744613961186,138.54525695828178,139.82826232910156,665900.0
2025-02-14,140.72929960574803,142.31591505799216,139.7792850599418,141.80662536621094,512800.0
2025-02-18,141.80661410840983,144.2551019301506,140.93495304164546,143.87313842773438,489600.0
2025-02-19,143.12880426353559,144.45099367199094,142.6097260381441,144.01025390625,331000.0
2025-02-20,143.94171731007287,144.38244217212826,142.91334933568692,143.65768432617188,283100.0
2025-02-21,144.00046152927248,144.35304436591701,142.20816668836144,143.32467651367188,451900.0
2025-02-24,143.16798872554835,144.2551180375646,141.38549716336897,142.6097412109375,353300.0
2025-02-25,142.8741632870377,145.27367831527678,142.7174564829414,144.6664581298828,336700.0
2025-02-26,143.6283035869074,146.10617230747383,143.59892292574537,143.61851501464844,735600.0
2025-02-27,143.21694635144803,144.14736874046284,142.3648773665291,142.6293182373047,262800.0
2025-02-28,143.14838730085012,143.9221028321513,141.64991403633834,143.72622680664062,348700.0
2025-03-03,143.94169395000412,145.7731579400057,142.68806946190705,143.56951904296875,394100.0
2025-03-04,142.54115535917794,144.90150112160728,142.14940329945776,142.93292236328125,490100.0
2025-03-05,143.04064002480618,145.78294896164962,143.04064002480618,145.3813934326172,445100.0
2025-03-06,144.51955819613613,148.3783778054115,144.0298605796166,148.03558349609375,471700.0
2025-03-07,147.40875736971992,150.20003950079644,146.10616003817648,149.63198852539062,480200.0
2025-03-10,148.93662196596816,150.82684736023063,147.14432711634848,147.467529296875,391100.0
2025-03-11,147.24224245056683,147.45771054865955,144.23550753617076,144.8427276611328,304000.0
2025-03-12,145.18552675241813,145.18552675241813,142.56074026251753,143.02105712890625,299700.0
2025-03-13,143.39324790721705,144.16696350239528,140.79784178568258,141.77723693847656,238400.0
2025-03-14,142.23756435683154,143.86336401714982,141.561779260411,143.6381072998047,223600.0
2025-03-17,143.49118010431383,144.95048427871978,142.854579225438,144.7937774658203,225200.0
2025-03-18,144.35304428256728,144.49015899982857,142.7762175618708,143.28550720214844,219900.0
2025-03-19,143.32466483055046,144.42159742424096,142.47259593827573,143.95147705078125,279600.0
2025-03-20,143.11903629465112,144.38244962366562,140.76847866840228,142.20819091796875,332800.0
2025-03-21,141.03288741960213,142.46281077035695,139.4266801328764,141.83599853515625,601900.0
2025-03-24,142.74682361184875,145.12674632792306,141.9241353848884,144.940673828125,463800.0
2025-03-25,145.43038233248038,146.15512513486658,142.9231183481365,144.1767578125,325200.0
2025-03-26,144.0200657855328,145.63606187248132,143.2855193924863,145.4989471435547,630400.0
2025-03-27,145.22471455574868,146.80154137661276,144.0004705937233,146.27267456054688,312700.0
2025-03-28,146.2138845778836,146.90926165859608,142.7566211490686,143.9025115966797,239800.0
2025-03-31,143.5597480313838,146.01802456611082,143.08964252694352,145.32266235351562,372500.0
2025-04-01,145.8123486528671,146.93864705079392,144.34325598893645,146.02781677246094,240000.0
2025-04-02,144.95049129591143,148.01600308998087,144.95049129591143,147.42835998535156,247600.0
2025-04-03,143.73602588355362,146.9582442746014,143.44221929600363,145.60667419433594,352900.0
2025-04-04,142.22773923506705,144.91128684220502,137.15446550169227,137.2915802001953,531600.0
2025-04-07,133.5307294902565,139.19163219073434,128.15385974857273,131.87554931640625,629900.0
2025-04-08,134.5493112573588,136.43953673434598,128.57499483049722,130.9059600830078,473800.0
2025-04-09,130.43584131939255,141.44424838924863,128.6141806532637,140.78805541992188,491800.0
2025-04-10,137.11531475806592,140.41587148111097,134.73539182521205,137.85964965820312,309000.0
2025-04-11,137.96737957378522,141.7282680233526,136.86067330008663,141.140625,203000.0
2025-04-14,142.79579899814664,143.38342705213157,140.82720541468416,142.78599548339844,249300.0
2025-04-15,143.08963340422312,143.5205547049289,140.80764097500608,140.97413635253906,250700.0
2025-04-16,141.09164958012386,142.8153944455794,139.63236050898016,142.0122833251953,307700.0
2025-04-17,142.40403652449308,142.7566193457953,137.81068622127157,140.86639404296875,390600.0
2025-04-21,140.347331860725,141.08187824351555,138.19266546008294,139.6421661376953,291600.0
2025-04-22,141.52262171318722,143.79482599635148,140.63136839809852,143.0113067626953,217800.0
2025-04-23,144.82316703093355,146.2433020616364,144.18656611291064,144.9994659423828,537000.0
2025-04-24,144.88190918887037,148.86805439769142,142.4628170537404,148.3391876220703,424500.0
2025-04-25,147.74174236983214,149.8474356512307,144.52932795142166,145.98861694335938,220500.0
2025-04-28,146.71337821983508,147.91802992014826,145.2246935924771,146.6154327392578,235200.0
2025-04-29,146.67419752698908,148.84845573678555,145.93965123839249,147.2030792236328,359900.0
2025-04-30,145.9984330116698,146.89947469973708,144.17675754933848,146.86029052734375,556200.0
2025-05-01,145.82883124627438,147.8721067076984,144.36514960993844,145.66183471679688,445300.0
2025-05-02,150.28867188742916,150.29848992197137,145.18047592473235,149.31614685058594,431600.0
2025-05-05,148.7562082163406,150.51461075676426,148.21593150363898,148.80532836914062,267600.0
2025-05-06,147.59705042912566,149.355437978684,146.78170385931236,148.25521850585938,312000.0
2025-05-07,149.19827245283236,150.44583737765655,147.9605105733144,148.7169189453125,318400.0
2025-05-08,149.10985945249004,151.84078718705774,148.5695827139862,150.6521453857422,302500.0
2025-05-09,151.19244816342078,151.57556141857108,150.239574043545,150.6128692626953,231600.0
2025-05-12,153.03923920333585,153.82511675438303,150.98614553061785,152.77401733398438,352500.0
2025-05-13,153.55003919391905,153.55003919391905,150.49495171985274,150.92718505859375,339400.0
2025-05-14,150.90752912864178,150.90752912864178,148.30432613531156,149.78765869140625,350100.0
2025-05-15,149.65998239804614,152.7347062134107,149.65998239804614,152.2140655517578,278100.0
2025-05-16,152.43998138798113,154.3751983205255,151.860402608422,154.2376708984375,278600.0
2025-05-19,153.5991717253283,155.5442069170815,153.5500515711728,155.28880310058594,185400.0
2025-05-20,157.4303150085624,157.4303150085624,155.12181749431372,155.73086547851562,388100.0
2025-05-21,154.09034056579173,154.8663850260189,153.07852836340334,153.6875762939453,319800.0
2025-05-22,153.5991755437167,154.4832783830283,152.81329802579143,153.88404846191406,278900.0
2025-05-23,152.38104076215055,153.42232193974363,151.5362251859094,153.1865692138672,260500.0
2025-05-27,154.25734853178614,155.64245601461047,153.92335544765425,155.36740112304688,352800.0
2025-05-28,155.36739421063615,156.03538034918074,154.4832763933447,154.6208038330078,364400.0
2025-05-29,155.0432217337395,155.86838638532782,154.05106054476073,155.53439331054688,232100.0
2025-05-30,155.44597065814978,155.9764293133438,153.77597547059216,155.60313415527344,335100.0
2025-06-02,154.75833131600515,156.2613301068848,152.51859016122646,154.13946533203125,349600.0
2025-06-03,153.4223415376803,154.66010346409962,153.24552697068694,153.5009307861328,397800.0
2025-06-04,153.72689030243944,153.75635939881812,147.63635056847724,147.75424194335938,831900.0
2025-06-05,148.9035951518603,150.6325139165367,146.4182678697891,149.7975311279297,482400.0
2025-06-06,151.64429332994897,151.75235166609104,149.52244371290558,150.60301208496094,264700.0
2025-06-09,150.0136191980335,150.4753066580511,148.6874500367206,148.9232177734375,388400.0
2025-06-10,149.47332984142486,150.2984944487939,148.19628081228734,149.8367919921875,323500.0
2025-06-11,150.29849644880608,150.8780752886444,148.92322208489034,149.23756408691406,380800.0
2025-06-12,148.73658814675593,151.8899014382214,148.73658814675593,151.6246795654297,337200.0
2025-06-13,150.2985051515068,151.00579343372206,148.06858195648448,148.49099731445312,361200.0
2025-06-16,148.5695758002576,150.20025395390124,148.4516844355203,149.01162719726562,346200.0
2025-06-17,147.9998142251002,148.58921108822153,146.49683048956007,146.81117248535156,379700.0
2025-06-18,146.4869866848808,148.0685595503163,146.4869866848808,147.05674743652344,383200.0
2025-06-20,147.6363309167007,148.10786637472864,146.35929693863002,147.6461639404297,570500.0
2025-06-23,146.85047583401547,151.2218996436103,146.85047583401547,151.0745391845703,356500.0
2025-06-24,151.8408047386156,151.8408047386156,150.47533321881096,151.1531524658203,246600.0
2025-06-25,151.14329517579995,151.80146318967252,150.0725448990236,151.21205139160156,264700.0
2025-06-26,151.80148526751537,152.83294856947208,150.4163778331554,151.7523651123047,658200.0
2025-06-27,151.92918872409527,153.3535832332286,151.50677339306424,153.06871032714844,643100.0
2025-06-30,153.27500695161754,153.73670945071478,151.88008141858438,153.66793823242188,315500.0
2025-07-01,153.66793021902077,156.9784367941011,153.20624273336693,156.20237731933594,338300.0
2025-07-02,156.21222388055548,157.6955567545511,155.84874669443275,157.48927307128906,293500.0
2025-07-03,157.76433002823686,158.51090549299013,156.99810350169926,158.19654846191406,235100.0
2025-07-07,158.10811741535406,159.5030428051159,157.7151861749073,158.11795043945312,313900.0
2025-07-08,158.05899691367227,159.70934109650693,157.02754866243734,157.22401428222656,342700.0
2025-07-09,157.10613360189868,157.18472285303153,155.30845881868973,156.90966796875,252800.0
2025-07-10,156.37920902223024,157.52854871323547,155.53439331054688,155.53439331054688,361600.0
2025-07-11,155.7603190354981,155.7603190354981,153.86440405350666,155.11196899414062,292000.0
2025-07-14,154.3654022940558,156.13362296539574,153.92335087356255,154.77798461914062,276600.0
2025-07-15,154.95480896302266,155.21021277775083,151.34961151557988,151.43801879882812,254200.0
2025-07-16,151.2022186711916,152.8623805847844,150.83875659165824,152.24349975585938,261900.0
2025-07-17,152.00777788286257,153.6482890740105,151.78182817574609,153.27499389648438,397700.0
2025-07-18,154.08052265083427,154.43416676966828,152.18459265589,153.6188201904297,243100.0
2025-07-21,153.65812006565358,153.90370586328876,152.49896229571195,152.7052459716797,205900.0
2025-07-22,153.35357548550758,156.54619042612177,152.48910879729814,156.3595428466797,449900.0
2025-07-23,157.24366585052525,158.99223535423732,156.3300789809644,158.8055877685547,450500.0
2025-07-24,158.559320268112,161.82979531304568,157.40675735764995,159.406494140625,431900.0
2025-07-25,159.63305506440543,160.65753702914088,158.3819926877325,158.5888671875,296300.0
2025-07-28,158.79573614749467,159.56410142477418,155.80108366056007,156.33302307128906,308500.0
2025-07-29,156.6778135699502,157.21961346905596,154.8751057408573,156.4512481689453,388200.0
2025-07-30,156.4315385130725,156.55958937255576,152.60940298667225,154.45150756835938,580700.0
2025-07-31,153.456563501654,155.0031544025075,152.86550639902828,154.79627990722656,679700.0
2025-08-01,154.6288158726098,155.76165777291718,138.9856590147076,139.24179077148438,1012300.0
2025-08-04,140.98538123418317,140.98538123418317,135.03547356824112,137.05490112304688,839000.0
2025-08-05,137.2617519084508,138.9659599251385,135.63636753338238,138.12863159179688,540800.0
2025-08-06,138.21731427393004,138.6605996470306,135.4984842918658,136.4737091064453,515300.0
2025-08-07,137.71491162131494,139.37970798596095,136.83818640949156,138.39462280273438,564000.0
2025-08-08,138.59163887027924,139.93135534040795,138.48327889728324,138.65074157714844,428700.0
2025-08-11,139.222090228796,139.5077583171329,137.12385398637957,137.7838592529297,349500.0
2025-08-12,138.12864188918144,138.9856611656125,137.15340217271373,137.39967346191406,286100.0
2025-08-13,137.6065636684466,139.33046288965815,137.1731237449772,139.3206024169922,729900.0
2025-08-14,138.09910131689176,138.09910131689176,134.40503169053025,136.2766876220703,875800.0
2025-08-15,136.29638497225332,136.8775816161289,135.81368782683418,136.65101623535156,770500.0
2025-08-18,136.81847442171076,137.4883401327873,135.3014499206359,135.83338928222656,529500.0
2025-08-19,136.20773671589527,138.4241784468644,136.20773671589527,137.50804138183594,333100.0
2025-08-20,137.8232781418471,139.14328874260568,137.18296372359896,139.07432556152344,519200.0
2025-08-21,138.53254347475354,139.78359091939785,138.14836082862038,138.54238891601562,270400.0
2025-08-22,139.15313972496236,141.1922734473183,139.0841915723422,139.3206024169922,356500.0
2025-08-25,138.8674588166062,139.4979127296023,136.88744301904194,137.47848510742188,245800.0
2025-08-26,136.9957973337368,138.06953652648775,135.95159446141804,137.62625122070312,442900.0
2025-08-27,137.01548945470773,138.47342629437426,136.95638675089546,137.3602752685547,729100.0
2025-08-28,138.07938928608468,138.07938928608468,135.35069910089788,136.8184814453125,320800.0
2025-08-29,137.09431078109077,137.78386744151146,136.28654870208595,137.1928253173828,370700.0
2025-09-02,135.37040364310914,136.46384879424832,134.13904716800675,134.37547302246094,310600.0
2025-09-03,134.0504057475134,134.1489052560839,132.4348665011149,133.20323181152344,382300.0
2025-09-04,134.3163671782823,136.41458834161003,133.0258929963137,136.3948974609375,401800.0
2025-09-05,136.94654859153968,138.7197049562119,135.5772807659998,136.55250549316406,440800.0
2025-09-08,136.52295752982062,137.91193130257207,135.62652636886406,136.23728942871094,616100.0
2025-09-09,136.19786500295976,137.39967006705987,133.08500740809663,135.00592041015625,637100.0
2025-09-10,134.09967481585545,135.409840147903,132.8387667580311,134.21788024902344,685100.0
2025-09-11,134.71040519706986,136.2175843964125,133.84352538471833,135.05519104003906,477500.0
2025-09-12,134.58234162242087,135.00593609481896,133.20322828923454,133.21307373046875,261300.0
2025-09-15,133.9420357302436,134.13904976383114,132.62202517087903,132.8387451171875,298000.0
2025-09-16,132.77962562814162,133.40023410540573,132.0999294759084,133.19337463378906,474800.0
2025-09-17,133.4002281421939,135.02562764541634,132.18857762612365,132.64170837402344,377400.0
2025-09-18,132.88800088562363,133.48890351954688,132.0703933145297,132.4939727783203,254800.0
2025-09-19,132.65158018177598,133.0850200863436,131.35126046807318,132.4348602294922,877200.0
2025-09-22,132.11960688188879,132.92738386712793,130.69123651388878,130.74049377441406,402100.0
2025-09-23,131.0261738005905,131.95215627068484,130.00169183165633,130.0509490966797,319700.0
2025-09-24,130.03122354369654,131.32168252387228,129.38106381848894,129.53868103027344,353300.0
2025-09-25,129.53870141670419,130.54349251095573,128.32705085173455,128.8688507080078,388700.0
2025-09-26,129.3712213015921,130.4548058368753,129.006744643412,130.31689453125,274400.0
2025-09-29,130.4252615354418,130.70108416159653,129.40077964275358,130.29721069335938,540600.0
2025-09-30,129.74557555443596,131.76498814664785,129.74557555443596,131.66648864746094,310400.0
2025-10-01,131.3413962300209,132.3560326654084,130.33660523425266,132.13931274414062,310100.0
2025-10-02,131.66648573117217,132.38559368725765,130.97692912730892,131.19363403320312,398500.0
2025-10-03,130.49423360821496,131.58767874762543,130.45482178395852,131.23304748535156,402000.0
2025-10-06,130.90798617122863,131.2133602121639,129.45006412198484,129.91305541992188,447100.0
2025-10-07,130.13960666531722,130.5336347337186,127.8739076939909,128.64227294921875,438800.0
2025-10-08,129.22345454639873,130.04107697266164,128.31717806976172,129.6470489501953,361300.0
2025-10-09,129.73571125193516,130.8587077217144,128.258083526899,128.66197204589844,554200.0
2025-10-10,128.98704858156654,130.04108184834632,127.95270619480443,128.97718811035156,426000.0
2025-10-13,129.0363213593292,130.37603789072034,128.21869880410003,128.27780151367188,311400.0
2025-10-14,128.10048555861533,129.10527677147402,127.11540026045824,127.86407470703125,337400.0
2025-10-15,127.86406447402499,128.44526114593418,125.95299674355027,126.18942260742188,438300.0
2025-10-16,126.5243419047704,127.56852978216413,125.94313774513942,127.23360443115234,352700.0
2025-10-17,127.23360344544018,128.15958590499872,126.92822944945955,127.4109115600586,339700.0
2025-10-20,127.67688307805489,128.1497197271898,126.11060134384137,128.06106567382812,240500.0
2025-10-21,128.6619859078428,129.80468841247423,127.19420346493476,128.62258911132812,311600.0
2025-10-22,128.70137488096933,130.13960588126338,128.04136960320932,128.12017822265625,357500.0
2025-10-23,128.27838836608,130.0482160538345,128.19928781482736,129.29678344726562,378600.0
2025-10-24,129.27699821696652,129.41542040316887,127.09188897025071,127.42807006835938,489300.0
2025-10-27,127.68513804202082,128.43657062662018,127.00290900843953,127.32919311523438,521700.0
2025-10-28,127.29953923164318,127.65548417782465,126.03396055341749,126.65686798095703,413500.0
2025-10-29,125.84608767724626,126.06361040803851,122.02957306455488,122.9095458984375,651100.0
2025-10-30,122.6425973459498,124.10591981246533,121.65386309537952,122.95899200439453,702600.0
2025-10-31,113.99117408852003,116.76951495369767,102.06704129042897,114.70306396484375,2758200.0
2025-11-03,114.78215353846566,114.78215353846566,107.07003104374891,111.84561920166016,1661000.0
2025-11-04,113.07164922422088,114.69317278774453,111.26226373964292,112.8936767578125,1029100.0
2025-11-05,113.04198468525121,114.73271928879292,111.49955417930168,114.26801300048828,896900.0
2025-11-06,113.72420198995826,115.64234871180304,112.517952627641,114.84147644042969,880300.0
2025-11-07,114.92057976181373,115.60280123250854,113.39792818360942,114.91069030761719,697200.0
2025-11-10,114.68328006091402,115.45449154553131,112.71570107535919,115.06888580322266,514000.0
2025-11-11,115.64235215314066,118.16362740289492,115.64235215314066,116.93759155273438,484800.0
2025-11-12,117.00680708571316,118.32182544371216,116.58165860151216,116.82884216308594,547500.0
2025-11-13,116.96726664292429,120.50692958090833,116.96726664292429,118.84585571289062,679400.0
2025-11-14,118.42069332802943,119.33033453666947,117.05624283023447,117.27376556396484,521200.0
2025-11-17,117.1551218108406,118.14385608312521,116.24548809076526,117.99554443359375,820200.0
2025-11-18,118.3119443710672,118.75687176767599,116.72996353102775,117.96588134765625,817400.0
2025-11-19,118.16362210922091,118.16362210922091,116.38389759577892,116.6706314086914,598900.0
2025-11-20,116.67063483535937,118.26249749040201,116.04773500908134,117.24410247802734,507400.0
2025-11-21,116.79916971414367,120.86286792776397,116.79916971414367,120.1509780883789,509100.0
2025-11-24,119.48852930748254,121.02107037008182,119.08315219875638,120.10154724121094,740000.0
2025-11-25,121.03095194765177,122.68213618171329,121.03095194765177,122.04934692382812,543600.0
2025-11-26,121.63407548431789,123.11717675407199,121.63407548431789,122.41517639160156,538000.0
2025-11-28,122.23721179455744,124.65961521692697,122.23721179455744,123.34459686279297,315700.0
2025-12-01,123.47312464549341,123.55222519221778,121.64396787729149,121.89115142822266,536800.0
2025-12-02,122.37563109798752,122.46462110038372,119.4390968008952,120.2300796508789,325400.0
2025-12-03,120.08176988930819,122.86011822072538,120.04222715811682,120.68489837646484,543100.0
2025-12-04,120.82332005860296,122.6821452414219,120.55636513524256,120.64534759521484,708000.0
2025-12-05,120.6156759451698,122.11855606626924,119.26111499759371,120.53658294677734,537000.0
2025-12-08,119.55773823925648,120.72444490270962,117.95599365521366,118.71731567382812,496600.0
2025-12-09,118.25260671307173,118.49979025868578,114.06037589162156,114.41632080078125,640300.0
2025-12-10,114.86124902547321,116.47289058274676,113.83296456280685,115.84998321533203,734700.0
2025-12-11,116.6310870053096,117.33308739219939,115.84010415999195,116.68052673339844,389700.0
2025-12-12,117.18477675810965,120.26963024864754,116.32458281214376,120.10154724121094,656400.0
2025-12-15,120.11143594513233,121.08039125301917,119.12270172858626,120.95185852050781,588600.0
2025-12-16,121.28802692871906,122.45473362902362,118.17351257639858,121.44622802734375,644800.0
2025-12-17,120.73433285185864,123.19627887906455,118.72720364799784,122.2372055053711,567300.0
2025-12-18,122.2767604710972,122.72169540087228,120.65523693661119,121.23859405517578,457100.0
2025-12-19,121.95048213130443,122.92933449703057,119.89392056770684,120.02245330810547,1300400.0
2025-12-22,120.02244905131522,122.30642273678362,119.70605439556444,121.35723876953125,527800.0
2025-12-23,121.48577799610219,121.64397155088497,119.95323691666961,120.81343841552734,311700.0
2025-12-24,121.1496037277725,121.7823930301015,120.38828169146663,121.36712646484375,198000.0
2025-12-26,120.99141254975284,122.08890816765887,120.34873378036154,121.86149597167969,306000.0
2025-12-29,121.90103810595791,122.90954365167185,120.9419647432383,121.82193756103516,400200.0
2025-12-30,121.41656795360201,122.89966931682952,121.04084411378047,121.35723876953125,289800.0
2025-12-31,120.15097596397585,121.94058998507745,119.98289296138277,120.58602142333984,314300.0
2026-01-02,120.36850209754444,121.61430932967109,119.4193181494529,121.15949249267578,295100.0
2026-01-05,120.38828287586783,123.17651312401219,120.38828287586783,121.61431121826172,435700.0
2026-01-06,120.8430922091253,121.46599202442482,118.7568624940921,119.20178985595703,777200.0
2026-01-07,119.31055741898699,120.57613602320409,116.28503309681528,119.0831527709961,478500.0
2026-01-08,118.56900865138992,121.98014631699301,118.17351344536358,121.06062316894531,330000.0
2026-01-09,120.70467850674399,123.5621198728979,120.09166055886544,122.4547348022461,429100.0
2026-01-12,122.60304703866626,123.88840458144911,121.59454142246342,123.7203140258789,477300.0
2026-01-13,123.64122184064439,124.0268275973534,121.15949674370285,122.10868072509766,351900.0
2026-01-14,122.71180688445504,125.72744932780128,122.71180688445504,125.42093658447266,611700.0
2026-01-15,125.70766789113175,125.78676843900955,123.11718152395939,123.7005386352539,381000.0
2026-01-16,122.60304567683241,123.78952374665012,121.85160554277793,123.30504608154297,363400.0
2026-01-20,123.49290649216461,124.1158063396922,122.0493554255934,122.4250717163086,275100.0
2026-01-21,122.90954323158518,124.2047901340779,122.50416614126715,123.6016616821289,421000.0
2026-01-22,123.64121667891544,124.98589581561515,122.66236437418617,123.0677490234375,369700.0
2026-01-23,122.93921055756546,124.85735737798285,122.4745118058816,124.58051300048828,429500.0
2026-01-26,124.99577817123766,125.55935637440064,123.69064930373163,124.92656707763672,315400.0
2026-01-27,123.54233481410213,124.87713201390274,122.77112334791536,123.33470153808594,303100.0
2026-01-28,122.80078648003611,123.6609879626866,121.8614919932062,122.3064193725586,347800.0
2026-01-29,122.88978028418853,123.86862507511535,121.20892754069328,122.4547348022461,386000.0
2026-01-30,121.52533188143772,123.60167232496788,121.27814831569736,123.54234313964844,512700.0
2026-02-02,122.80078342815366,124.49152553193812,122.80078342815366,123.42369079589844,489100.0
2026-02-03,122.51405462375108,126.48876266797768,122.29653189940339,123.22593688964844,658700.0
2026-02-04,124.77433039015442,129.44927260782487,123.77184577350829,128.26812744140625,589400.0
2026-02-05,126.71975064755804,128.1192596554473,121.05225107397254,123.05722045898438,2144200.0
2026-02-06,126.58078326238557,134.97782150042084,126.58078326238557,133.31031799316406,1045700.0
2026-02-09,132.5857587104382,138.531180271334,132.2582131007177,137.43936157226562,1043400.0
2026-02-10,136.78427392403074,139.88104683101494,136.78427392403074,139.126708984375,622100.0
2026-02-11,137.99519392074043,139.50388475135443,137.56840169460276,138.9678955078125,584300.0
2026-02-12,139.11678651599092,140.94308767923593,138.3525134196047,139.46417236328125,572700.0
2026-02-13,139.46416820425452,141.86615414747763,139.36492159879577,141.51876831054688,471900.0
2026-02-17,138.2234773285034,142.55102629654255,138.2234773285034,140.59568786621094,614700.0
2026-02-18,140.41703714664675,142.04482998774162,139.791721402891,140.66517639160156,582000.0
2026-02-19,140.5956812663536,142.25326464590432,139.98030082414553,142.09445190429688,525500.0
2026-02-20,142.0547550361601,144.0597244456509,140.94309602664507,143.97039794921875,664500.0
2026-02-23,142.42199361111417,145.15152505885825,142.06467252487357,144.63539123535156,513500.0
2026-02-24,144.98279666295065,145.8165408414096,142.77931908758302,143.06715393066406,429800.0
2026-02-25,141.3500320156877,142.5907281428982,139.3847584456305,141.61801147460938,348900.0
2026-02-26,142.45178416412276,142.8488009040386,139.9505362960431,140.73464965820312,331300.0
2026-02-27,140.47658357934912,142.9381205686862,139.9505296087492,142.64036560058594,344600.0
2026-03-02,141.93563886113196,142.2830398395081,140.56590547180699,141.60809326171875,335000.0
2026-03-03,139.5931967078321,140.26814325067423,135.90088396317486,138.71974182128906,347300.0
2026-03-04,138.302888395737,138.47162126788456,134.9976717766612,136.02000427246094,389000.0
2026-03-05,134.98775502807862,135.32522078079646,133.40959299752922,133.72720336914062,452300.0
2026-03-06,133.0026313554941,133.0026313554941,130.02496050425168,131.096923828125,398500.0
2026-03-09,129.9951790988654,132.98276993154295,126.58078092139597,132.75448608398438,545700.0
2026-03-10,132.3574660154593,133.1316591702968,130.42196798314936,131.14654541015625,503100.0
2026-03-11,130.8190202738326,132.28800044532838,129.0721101988683,131.03738403320312,563800.0
2026-03-12,130.29295237048808,131.8016279987067,127.68252279954663,127.90088653564453,620600.0
2026-03-13,129.1812869710477,129.1812869710477,126.10436937058473,127.69245147705078,660600.0
2026-03-16,128.51628506786432,130.4319280867629,125.06219070801843,128.08949279785156,370700.0
2026-03-17,129.00263581888095,130.04482370856644,127.28551643200822,128.5361328125,276700.0
2026-03-18,123.45423058912087,125.63786042046195,120.51626292882625,123.29542541503906,910500.0
2026-03-19,122.0944332187195,123.8909588849741,120.54603921873606,123.04728698730469,518500.0
2026-03-20,123.33512999241371,123.33512999241371,119.41452545613383,120.15894317626953,1481500.0
2026-03-23,122.59071811756196,125.39964869362488,122.0745842329971,123.21602630615234,455200.0
2026-03-24,122.2433152775169,124.28798013248851,121.95547285876513,123.22594451904297,405000.0
2026-03-25,124.50634549167631,125.62793211237509,122.78921864642815,124.88351440429688,337200.0
2026-03-26,124.28798636131239,126.3922023143744,123.19617519683187,123.76193237304688,442100.0
2026-03-27,123.01751427118627,123.28550132328671,120.85373975633635,121.08202362060547,381400.0
2026-03-30,121.64777727824665,123.01751071469691,120.19864504103799,122.44182586669922,562000.0
2026-03-31,123.46415851677581,126.01502957768723,122.67010992701152,125.08202362060547,557800.0
2026-04-01,126.39219982096562,127.68252689973865,125.38972274230011,125.80659484863281,380200.0
2026-04-02,124.2085781211438,126.14406117582702,123.32520302720033,125.07210540771484,297500.0
2026-04-06,123.66266876079281,125.25076596450165,123.66266876079281,125.07210540771484,461100.0
2026-04-07,124.38723692091199,126.22346576757812,123.8711106378232,124.67507934570312,376900.0
2026-04-08,130.4021481364575,131.68254004802253,127.19617800807119,131.03738403320312,645200.0
2026-04-09,130.24332882387228,131.45424955756675,126.39220287440348,130.42198181152344,424100.0
2026-04-10,131.2656579543429,131.71230555728022,129.87608426848973,130.521240234375,407400.0
2026-04-13,129.82646170678544,131.43439923843442,126.63042687940094,131.126708984375,396300.0
2026-04-14,130.2532453341348,131.73216065356567,129.99518597737963,130.03488159179688,315500.0
2026-04-15,129.83636721114993,130.0547309433663,127.64282491736233,128.68499755859375,407100.0
2026-04-16,125.9554827551545,129.3599535123959,125.9554827551545,127.33512878417969,393800.0
2026-04-17,128.68501330537714,131.31529853067389,128.68501330537714,129.65773010253906,401100.0
2026-04-20,129.59817078840075,131.00759986778516,128.69494031122633,129.945556640625,403600.0
2026-04-21,129.727195499975,131.2656618627598,125.7470474243164,125.7470474243164,310200.0
2026-04-22,126.33264680138942,126.33264680138942,122.04480110008107,123.62297058105469,458900.0
2026-04-23,124.44679072012924,126.49146323670142,123.51379231359721,124.01007080078125,440800.0
2026-04-24,123.48400922187079,123.48400922187079,121.6577005635927,123.15646362304688,440900.0
2026-04-27,123.11676141393268,125.2904634945878,122.6204829533344,123.80162811279297,359700.0
2026-04-28,125.18128618602746,125.70734016180099,122.79914797388655,124.8338851928711,354300.0
2026-04-29,124.20857785922294,124.96292327213307,121.87607050853111,121.9852523803711,448400.0
2026-04-30,122.51130595027864,125.14158341040145,120.97283963229869,122.75944519042969,764800.0
2026-05-01,126.26316859263083,127.5237125861033,117.0224658192811,118.13412475585938,989400.0
2026-05-04,117.79666211505766,120.84381172589876,116.58574139374336,119.7023696899414,739600.0
2026-05-05,120.00014032911528,122.78922301811379,119.92073395333378,121.1217269897461,628600.0
2026-05-06,122.74597925597982,125.94466800462597,121.24129756714204,122.19791412353516,917000.0
2026-05-07,122.5068295340525,126.02439054042098,122.13813047351475,124.66918182373047,749700.0
2026-05-08,124.78875603965518,125.4165335007669,119.9658058031768,120.56369018554688,794900.0
2026-05-11,120.79288554794945,120.79288554794945,119.0191585502766,119.53732299804688,706100.0
2026-05-12,120.02559365453983,120.43415267647454,116.72725880994862,117.6340560913086,696600.0
2026-05-13,117.58423293808002,118.33159035082205,116.01976505817387,117.46465301513672,679500.0
2026-05-14,118.31166263789773,119.73662439056804,116.62761485678391,117.57426452636719,531000.0
2026-05-15,117.49455009110837,117.5045093824967,114.06666843041747,114.26596069335938,447000.0
2026-05-18,115.19268785792543,116.90662874327987,114.76420263658683,115.40194702148438,433100.0
2026-05-19,115.48166685737739,115.63113986049136,112.05378509001822,113.20970153808594,575800.0
2026-05-20,113.66807993613209,115.04321484042606,111.15696237122292,114.85388946533203,562600.0
2026-05-21,116.08951407739181,116.08951407739181,112.37265332877841,115.1030044555664,345600.0
2026-05-22,115.39198749681162,116.38846404651633,114.30582410432685,115.82047271728516,405800.0
2026-05-26,115.79056648170686,116.55785764558959,114.96349676302546,115.96993255615234,344500.0
2026-05-27,116.52796630163347,117.69384200162881,114.32575411191587,114.89374542236328,464000.0
2026-05-28,114.40547144179769,115.93007936247552,112.95061657623215,115.58131408691406,510100.0
2026-05-29,114.65458561775299,116.84683851674723,113.34920381323532,115.44180297851562,559600.0
2026-06-01,114.28589767180515,114.72434218302038,111.63526640610465,111.9840316772461,706800.0
2026-06-02,111.5555436879482,112.65167394505289,110.84804626905223,111.78473663330078,452400.0
2026-06-03,111.29646253608045,113.61824699938008,111.29646253608045,112.13349914550781,372600.0
2026-06-04,114.54497230632394,115.35212345281656,111.14699134502068,112.15343475341797,337600.0
2026-06-05,112.69152600064275,114.18624078068318,111.58544405772433,112.96057891845703,466300.0
2026-06-08,111.86445781905672,112.24311616501637,110.55906839000053,111.54558563232422,422200.0
2026-06-09,112.88085932662787,115.74074968498803,112.27300803930216,115.49163055419922,444400.0
2026-06-10,115.74074928767203,116.13934141606836,112.97054577921195,114.26596069335938,496800.0
2026-06-11,114.70441351982215,116.59772043978674,113.85740999319688,116.16923522949219,395200.0
2026-06-12,117.48458764205596,118.05257897569324,115.96993901734801,117.30522155761719,342600.0
2026-06-15,118.28175862932584,120.31457162088154,117.14577601676713,117.66394805908203,576100.0
2026-06-16,118.08246565966249,120.62348378448296,113.36912845320511,120.22489166259766,474700.0
2026-06-17,121.19147655168894,121.918900150595,119.03908362900873,119.56721496582031,680500.0
2026-06-18,120.03556323646836,122.1182031608104,118.69032142639777,119.89605712890625,750600.0
2026-06-22,119.13873446752551,120.58363003359555,118.46113010611298,119.57718658447266,468400.0
2026-06-23,119.93591657137902,122.14809569936509,118.6604278207416,120.1850357055664,514100.0
2026-06-24,121.55021059109053,124.60939323702425,121.34094382937874,123.84210205078125,404900.0
2026-06-25,125.28699706013307,127.68850153642342,124.45991971828299,125.98452758789062,363500.0
2026-06-26,125.49625757990486,126.67210019838983,124.3204149614199,125.53611755371094,727400.0
2026-06-29,125.16742108368359,125.60587320209562,123.48337326752176,124.84854888916016,446600.0
2026-06-30,124.16097333332938,125.86494727656601,123.5033027809896,124.75885772705078,329300.0
2026-07-01,124.67914609082169,126.39307933521575,123.66273577346423,124.80868530273438,405600.0
2026-07-02,125.82508774888942,127.77818082996899,124.96812492977865,126.5325927734375,468400.0
2026-07-06,125.98452783897301,126.6023460237271,123.74245564919634,125.56600952148438,431400.0
2026-07-07,126.18381913439254,128.26645901687073,125.71548155556971,127.2400894165039,392700.0
2026-07-08,126.00445175211411,126.26353777363065,122.60647080352626,123.77234649658203,537700.0
2026-07-09,124.02146439127118,125.03787467960888,123.34386006655016,124.0114974975586,302100.0
2026-07-10,124.55956853594634,126.53259544666133,123.93179104742975,125.08769989013672,385200.0
2026-07-13,125.64571994715708,126.72191640641843,123.96167980892794,124.449951171875,391600.0
2026-07-14,127.96751666781715,128.95403392567474,127.5091383673285,127.82801055908203,739900.0
2026-07-15,129.25298235497795,130.3092450844948,127.99741214779503,128.65509033203125,466800.0
2026-07-16,129.56187796196684,134.6040465870392,129.56187796196684,134.27520751953125,579300.0
2026-07-17,135.351401437915,136.16850424088722,130.24944675099272,132.1427459716797,530800.0
2026-07-20,131.9135687694055,131.9135687694055,129.2928306127641,129.4522705078125,422900.0
2026-07-23,128.39600579528673,129.36258923692642,127.71839385448645,128.54547119140625,382800.0
2026-07-24,129.13338680160044,132.26232242316664,129.13338680160044,131.8936309814453,335900.0
2026-07-27,132.72071171310446,133.60757521827134,132.19258036761323,132.9000701904297,411200.0
2026-07-28,134.9030016293852,137.54365843276426,134.3549364800917,137.32443237304688,593100.0
2026-07-29,135.52081464440568,136.11870667337666,134.0759266469227,135.75,580000.0
2026-07-30,136.39999389648438,136.39999389648438,133.11000061035156,133.8699951171875,627000.0
2026-08-03,137.22999572753906,138.4600067138672,134.52999877929688,136.77000427246094,642500.0
2026-08-04,137.8699951171875,137.8699951171875,135.33999633789062,136.17999267578125,511900.0
2026-08-05,136.8699951171875,136.8800048828125,134.8699951171875,136.75,454800.0
2026-08-06,138.6199951171875,138.69000244140625,134.6699981689453,135.77999877929688,545000.0
2026-08-07,135.05999755859375,137.67999267578125,134.7100067138672,135.4199981689453,686300.0
2026-08-10,134.38999938964844,134.52000427246094,132.92999267578125,133.67999267578125,446700.0
2026-08-11,132.8000030517578,135.0500030517578,132.8000030517578,134.75,343700.0
2026-08-12,133.50999450683594,134.47000122070312,132.27000427246094,132.27000427246094,48884.0
