Date,Open,High,Low,Close,Volume
2023-06-20,112.43935851416155,112.50669870039683,111.31381225585938,111.31381225585938,297000
2023-06-21,110.76546986182699,110.8809133278712,109.11081687950966,109.30322265625,317800
2023-06-22,109.62068186738438,109.7265032121453,108.08147231567553,109.71688842773438,266200
2023-06-23,108.61057596542958,109.40904342074265,107.8121085101165,108.5432357788086,366000
2023-06-26,108.76449527106796,110.0247292720477,108.76449527106796,109.2936019897461,142300
2023-06-27,109.50522665504649,110.45761125239538,108.92802409118438,110.36141204833984,218300
2023-06-28,110.44799801064187,110.44799801064187,108.20652775176103,109.2070083618164,204800
2023-06-29,109.12044345319548,110.97711707215846,108.2738800196046,110.41915130615234,225900
2023-06-30,110.84243082499913,111.8621557409713,110.47686352340168,111.45811462402344,279800
2023-07-03,111.02520912022894,112.57403332715113,111.02520912022894,112.11227416992188,85700
2023-07-05,111.22724193095031,111.22724193095031,108.47590157241842,108.64906311035156,384200
2023-07-06,107.98525675656242,108.68752490740096,107.38880993447391,108.1968994140625,277700
2023-07-07,108.37006396940184,110.94824240327603,108.31233857239603,109.46675109863281,333400
2023-07-10,109.00498687608896,110.91938567001287,108.71638924320413,110.12091827392578,248000
2023-07-11,109.96700155164797,111.1695101237359,109.06272009631815,111.12141418457031,226700
2023-07-12,112.15075804421535,113.08390584398397,111.37152752074805,112.42974090576172,199400
2023-07-13,112.41049798976871,112.91074565761176,112.13151512491966,112.56442260742188,190200
2023-07-14,113.21859488489058,114.3248969529102,112.26620276543113,113.853515625,271600
2023-07-17,113.901608790538,114.99829597658342,112.70872239053817,114.72893524169922,234200
2023-07-18,114.48843831688549,115.7967682319705,114.19021119978753,114.55577850341797,189100
2023-07-19,114.23830222496996,114.87323020662586,113.81501690386602,114.58462524414062,247200
2023-07-20,115.22917239852205,115.65245773575094,114.34412791116105,114.79627227783203,175800
2023-07-21,115.10411944391612,115.48892364638458,114.35375528584399,115.28689575195312,184300
2023-07-24,115.46006685551131,115.91221128046027,114.19984014391085,115.18109130859375,163400
2023-07-25,115.13298976582657,116.51828209475734,114.76742977437225,115.97955322265625,250700
2023-07-26,115.98920106005731,116.22086850035656,114.69570917552166,115.78648376464844,306900
2023-07-27,115.89267286358223,116.58768258896228,114.61849082191067,115.00460815429688,407800
2023-07-28,118.23831895027517,122.58212207343301,117.64949171552556,119.4835433959961,513000
2023-07-31,119.23255062876018,119.62832284159222,116.63592699428007,117.24405670166016,746500
2023-08-01,117.03171151335569,118.24797849712147,116.5587216614483,118.1900634765625,365300
2023-08-02,117.22477436702148,118.08388154374163,115.81545239886735,117.99700164794922,329200
2023-08-03,117.30200061337503,118.47000762632071,116.5297732753478,116.61664581298828,195900
2023-08-04,116.43322735677468,117.89080926457223,116.29808740988715,116.45252990722656,116500
2023-08-07,116.53941151793796,117.4371311010002,116.32704663695499,117.07997131347656,140300
2023-08-08,115.91197623422308,117.18615820393119,115.55481643313685,116.91587829589844,270100
2023-08-09,116.91587969970159,119.10708386434126,116.33670004459134,117.60123443603516,287500
2023-08-10,117.5722832458952,119.28084269949765,117.5722832458952,117.98735809326172,216000
2023-08-11,117.29233186361209,118.94297606224828,117.29233186361209,118.3541488647461,226500
2023-08-14,117.79428541805788,118.72096252441406,117.35990805602609,118.72096252441406,145700
2023-08-15,118.37346829843713,118.66305814213011,117.74603591139508,117.85221099853516,249000
2023-08-16,117.5047040691571,118.88506846613971,117.27302926695963,117.32129669189453,291100
2023-08-17,117.72672381164278,118.4024309795417,117.3985288684787,117.41783142089844,186600
2023-08-18,117.16685986934151,119.13605171982319,117.16685986934151,119.01056671142578,443100
2023-08-21,118.87541361000102,120.13994060696739,118.78853371795883,119.4835433959961,358800
2023-08-22,119.57043753667486,121.34656704591177,118.49896538278105,118.68236541748047,429600
2023-08-23,118.7885388380475,119.27118365031271,118.0645716196497,119.10708618164062,305000
2023-08-24,119.20360799225472,121.1052296403174,118.33484589865057,120.76737976074219,278400
2023-08-25,121.21140789758252,123.24816942714405,120.64189060090382,123.11302947998047,493000
2023-08-28,123.19991484093003,125.08223406896586,123.19991484093003,124.91813659667969,331900
2023-08-29,125.29460231640239,127.37963154200303,124.90847761028107,127.24449157714844,472400
2023-08-30,127.7753889970742,128.63449621483008,127.12864668520417,128.27734375,298900
2023-08-31,128.65378802476235,129.0881653696092,127.64989338935744,127.95877838134766,305800
2023-09-01,128.48003171130253,129.1460690594459,127.92016206269739,127.9491195678711,252000
2023-09-05,127.10930828499521,127.39889806714392,122.93926550115756,123.14197540283203,325300
2023-09-06,123.35435186497804,123.56670937867945,121.81953765852965,122.02225494384766,291100
2023-09-07,121.90642476392419,122.7558769627409,120.79634024831218,121.00870513916016,328600
2023-09-08,121.15349629318462,122.27322836758205,120.77703394911717,120.96043395996094,238800
2023-09-11,122.58212288434471,123.48949745495977,122.02226051962224,122.60143280029297,333500
2023-09-12,121.73267217607768,122.87171419988563,121.06661999469735,122.13809204101562,258000
2023-09-13,121.41412887262732,122.19601111877186,120.76738658595033,121.01836395263672,279300
2023-09-14,121.63614783178475,122.88137233304762,121.63614783178475,122.36011505126953,217900
2023-09-15,122.09948164304562,122.78483638765171,120.82529964265854,121.55892181396484,589200
2023-09-18,121.97399375623068,121.97399375623068,120.58397438341775,121.27898406982422,175100
2023-09-19,121.32724871079844,121.32724871079844,119.7538219944691,120.96043395996094,218600
2023-09-20,121.47203852211109,121.72301587769854,120.2364690247192,120.30403900146484,206200
2023-09-21,120.01446098001375,120.03376353212249,117.94874176933433,117.97769927978516,335700
2023-09-22,118.08387254217192,118.63408729166287,117.87150766261843,118.42172241210938,341200
2023-09-25,117.75566587744319,119.82138485045922,117.25371857003607,119.73451232910156,258800
2023-09-26,119.24222158838647,119.9082737605531,118.95263913082606,119.3097915649414,547000
2023-09-27,119.73452920562256,120.13029413299238,118.6051420813391,119.23257446289062,362400
2023-09-28,119.56077415880812,121.27898852184504,118.98160185373365,121.1148910522461,219300
2023-09-29,122.09948855075551,122.42769086881908,120.45849905416489,120.69982147216797,330900
2023-10-02,120.2075027230005,121.12453218556013,119.68624549855679,120.70945739746094,244100
2023-10-03,119.71520247847242,120.96042683728476,118.23831069800823,118.6051254272461,236300
2023-10-04,119.26154855376998,120.33302073844246,118.08389391010647,119.9179458618164,208200
2023-10-05,119.65730742147107,120.59363958605735,118.53757522625172,119.45459747314453,466700
2023-10-06,119.31944127145509,122.29253483817196,119.10707639317893,122.02225494384766,491700
2023-10-09,121.45274741731988,122.80415444417451,121.32726240998709,122.53387451171875,275700
2023-10-10,122.82342763591909,124.14587683452712,122.11877046112158,122.1477279663086,322000
2023-10-11,123.10337829589844,123.26747575611641,122.25392612132153,123.10337829589844,212900
2023-10-12,122.80415183788968,122.97790427143451,120.71912263535175,121.0666275024414,189300
2023-10-13,121.62646879621879,122.27321095009776,121.0472966081992,121.5975112915039,324900
2023-10-16,122.93929125115677,123.00686123253432,121.79059420316273,122.31185150146484,275200
2023-10-17,121.6361379330477,123.88525698147005,121.6361379330477,123.05511474609375,314400
2023-10-18,122.46629731522039,123.23852459609822,121.89677260716917,122.3794174194336,287300
2023-10-19,121.70370985945581,123.04546176273765,121.0376577043825,121.36585998535156,443900
2023-10-20,121.55892290885227,122.08983514903522,117.69776440446827,117.97769927978516,446500
2023-10-23,117.49505685595796,118.88507630246588,117.00275707455714,117.2826919555664,379000
2023-10-24,117.89082303186629,119.47389747848429,117.4950581024996,119.05882263183594,312100
2023-10-25,118.57456478321305,119.88205053938309,118.05156900291749,118.5164566040039,431300
2023-10-26,117.44142013499159,121.44136021457453,117.44142013499159,119.54308319091797,576000
2023-10-27,119.58181419956955,119.94015782086082,116.56975044747777,117.35424041748047,364000
2023-10-30,118.08062663343416,118.4680317477671,117.0443222013479,118.32275390625,283100
2023-10-31,118.65204893878834,119.02007972748278,117.99346247171451,118.41960144042969,422900
2023-11-01,118.26465305275431,119.54308483686565,117.78039847711914,119.05883026123047,360500
2023-11-02,119.82394517295023,120.37599505580931,119.10725051904181,119.6883544921875,384300
2023-11-03,120.51157663196489,122.00308139681017,120.51157663196489,121.40260314941406,278000
2023-11-06,121.32513288888951,121.7706535816755,120.82151140319914,121.2476577758789,173500
2023-11-07,120.69560295651807,121.05394658334917,120.25976944156056,120.6278076171875,205000
2023-11-08,120.94740023906827,121.53819131521276,120.49220721978558,121.17984771728516,175800
2023-11-09,121.73188864968265,121.73188864968265,120.16290153751326,120.47282409667969,118600
2023-11-10,120.32756674184381,121.82875878037683,119.98859003966672,121.7609634399414,195600
2023-11-13,121.44136268053566,121.5285323470718,120.45348659100293,120.60844421386719,183100
2023-11-14,121.98372186279225,123.83357784628552,121.36387661125713,123.82389068603516,267400
2023-11-15,123.79483004673568,124.74397219433762,123.33962959784179,123.68829345703125,388600
2023-11-16,123.63018988768,124.56963752144287,122.84569248067687,123.53334045410156,217000
2023-11-17,124.51150991529465,125.01513871395737,123.59142935612503,123.90135192871094,162700
2023-11-20,123.43648091454516,123.6301871665767,122.44860489116716,123.31057739257812,213900
2023-11-21,123.44617025127671,124.2597217458794,123.19435581376419,123.88200378417969,160600
2023-11-22,124.40497858710981,125.13136033998698,123.3493073197142,124.52120971679688,174800
2023-11-24,124.90860634455977,124.90860634455977,124.06600824743718,124.48246002197266,65900
2023-11-27,123.794825618472,124.25971321047442,122.85537066421331,123.00064849853516,367500
2023-11-28,123.00066132351925,123.0103484839208,121.53821044669819,121.65443420410156,218000
2023-11-29,121.68348364866526,122.4195526391636,120.98615590915504,121.42198944091797,331800
2023-11-30,121.49944870678837,123.1265440903802,120.87960355009977,122.89410400390625,301000
2023-12-01,122.43890670746781,124.492141070173,122.43890670746781,124.06600952148438,218300
2023-12-04,123.43648339442977,124.8214591095816,122.8941206561211,124.37593841552734,192000
2023-12-05,124.21128583306977,124.637432180179,121.91591672132816,122.02245330810547,178000
2023-12-06,122.40986986130585,123.29121672727666,121.91592812994705,122.3905029296875,179500
2023-12-07,122.26457897811483,123.10718450188428,122.0224517184367,122.50670623779297,254000
2023-12-08,122.38080955024061,123.48490932483753,121.66411489056881,123.31057739257812,265800
2023-12-11,123.25246840515973,123.65924044805773,122.36143442992014,123.55270385742188,338000
2023-12-12,123.6301827914491,124.06601630124297,122.69072782247173,123.46553802490234,210300
2023-12-13,123.1749792246949,124.92798560063507,123.1749792246949,124.54057312011719,425000
2023-12-14,125.01515711630776,125.91586349088605,122.88443265064014,123.3880615234375,412900
2023-12-15,123.15562026534607,124.53090140906804,122.0030920759156,122.01277923583984,713000
2023-12-18,122.71979057892658,123.2040451423613,121.91592623023179,123.04908752441406,240500
2023-12-19,123.68828729734022,124.09506670556218,122.06119183186492,122.25489807128906,659100
2023-12-20,122.05151829502903,122.94255231755521,121.5091555423822,121.61569213867188,346400
2023-12-21,122.26458682357395,122.26458682357395,120.91835976450997,121.94498443603516,421900
2023-12-22,122.41955104807825,123.03939627755607,122.14836968382394,122.29364013671875,312200
2023-12-26,122.16772810971344,122.87474295084685,121.63504518905556,121.86749267578125,274700
2023-12-27,122.1483674460001,122.48734414510773,121.09268870976447,121.3348159790039,283100
2023-12-28,121.0442736769447,121.8384508637691,120.48253661112938,121.25733947753906,343600
2023-12-29,121.24764780949722,121.41229257117608,119.66897336181908,119.72708892822266,313500
2024-01-02,118.74890465167896,120.19198118193904,118.4389820266069,119.0103988647461,313100
2024-01-03,121.20890647105196,123.25246111360688,119.27188841283024,121.41229248046875,531700
2024-01-04,121.23796483552567,121.95465947338585,120.22102736343857,120.30819702148438,353300
2024-01-05,119.88206154807094,120.45348578960612,119.11693843195954,120.28883361816406,423000
2024-01-08,120.16292355411841,121.21860231382453,118.51646104234021,120.4341049194336,352400
2024-01-09,119.81425753742421,120.71497127842206,119.09756288636142,120.70528411865234,250300
2024-01-10,120.54064287476366,121.4704107331338,120.31788991750878,121.2476577758789,279600
2024-01-11,121.43166549949392,122.97159877535763,121.00552652992823,122.84568786621094,323100
2024-01-12,123.86262311015058,123.94010560835483,121.9546590794131,122.44860076904297,231700
2024-01-16,121.91591381064313,122.82631466168198,121.55757019925443,122.8166275024414,257500
2024-01-17,121.97401959326086,123.26213088171106,121.92559119008001,122.70040130615234,336900
2024-01-18,123.31057880230377,125.91586326695527,122.33238253849082,125.0732650756836,444200
2024-01-19,125.62532832931079,127.32021934154592,124.49215961910426,126.68099975585938,418000
2024-01-22,126.77783228272094,127.65917908967951,126.44854274328884,127.05870819091797,266200
2024-01-23,127.64948137545858,127.69790977816179,126.22577204997125,127.67853546142578,217800
2024-01-24,127.95939664057987,128.12404138726603,126.42915073939402,126.6615982055664,294400
2024-01-25,127.87224954144052,128.2112336225098,126.27421550960058,127.11681365966797,332300
2024-01-26,127.53327613099292,128.4146229928944,127.2620947547581,127.55265045166016,219900
2024-01-29,126.92310407579417,128.41460139422355,126.38074141454712,128.08531188964844,187800
2024-01-30,127.8722387329765,128.898855881519,127.4848410544498,128.08531188964844,228400
2024-01-31,128.6002223728795,128.9888396442922,125.48164845004577,126.18114471435547,537500
2024-02-01,126.74463109681972,127.37611379178679,125.91883235026269,126.78348541259766,298800
2024-02-02,126.25887748257338,126.98751824296068,125.02504164419864,126.39488983154297,344800
2024-02-05,125.45250566991007,127.70642657703459,124.40326125954347,126.92920684814453,319500
2024-02-06,126.76404086060465,127.6578382954497,125.61765333250959,127.39553833007812,369700
2024-02-07,127.66757043860348,128.64880125247385,125.6856594170207,128.0464630126953,393000
2024-02-08,127.89100446372801,130.99986822769836,127.79384644875978,128.35733032226562,620700
2024-02-09,128.34765326293345,135.24545901063345,127.76473467256268,135.00257873535156,650900
2024-02-12,135.19687008272106,136.4695602600504,133.5938514887977,133.69100952148438,491300
2024-02-13,132.79720331284167,133.41897613857319,131.13589593708764,132.058837890625,275900
2024-02-14,132.37944687307478,133.5452839390653,131.32049253489302,133.26353454589844,335000
2024-02-15,133.26354322870253,133.8853161197666,130.73759734435762,131.19419860839844,471400
2024-02-16,131.51479249745606,134.06989746093748,131.19418878983706,133.58413696289062,453900
2024-02-20,133.2343951113686,136.14895823746613,133.0498037415049,135.71177673339844,373000
2024-02-21,135.11915707414406,136.11982262644284,135.03172373250294,136.01295471191406,276300
2024-02-22,136.46956475351203,138.36402785940447,136.08096225843894,137.4410858154297,295700
2024-02-23,137.9268263528802,138.00454980547522,136.59584743474338,137.33419799804688,190300
2024-02-26,137.47024353315803,138.01429300847857,136.79018168900737,137.87828063964844,199200
2024-02-27,137.87825149589725,138.13084160626636,135.81863182489295,136.31410217285156,244600
2024-02-28,135.67290467799532,137.21763436808848,135.3620256598198,136.41127014160156,189600
2024-02-29,136.62499564942553,137.59651659734325,135.8477759262447,136.4598388671875,250600
2024-03-01,135.89635016734115,136.78042293249038,135.58545635929062,136.29466247558594,151400
2024-03-04,136.68326343484782,138.07253106027923,136.556960987361,137.91709899902344,260300
2024-03-05,138.21830138260887,139.13153352462706,137.7033964215534,138.461181640625,190200
2024-03-06,138.85947150350745,139.54925784719796,138.42229007474432,138.99549865722656,184000
2024-03-07,140.3847801035931,141.0065529311518,139.74357270585753,140.53050231933594,250100
2024-03-08,140.58881247786712,140.9385606359244,138.89836057655117,139.0149383544922,185200
2024-03-11,138.72349095328647,139.29669966708138,137.9365612363938,138.6749267578125,226700
2024-03-12,138.73320167882696,138.78178069364364,137.4507868439898,138.35430908203125,242200
2024-03-13,138.9274874603586,138.9274874603586,136.91643209967154,137.139892578125,336800
2024-03-14,137.33420459583292,137.58679471072702,136.36268362807073,136.91644287109375,235200
2024-03-15,136.051814987164,138.35433018745536,135.76037050227316,136.98448181152344,599500
2024-03-18,136.91642916369148,137.27590196625363,134.9733874226949,135.2939910888672,299700
2024-03-19,134.92484757362786,136.3238402513451,134.92484757362786,135.53689575195312,253000
2024-03-20,135.6534968065034,136.08096846512183,135.1774461277264,135.9838104248047,220000
2024-03-21,136.31408879230668,137.56735899681854,135.33285806548636,137.12045288085938,255800
2024-03-22,137.9657000290801,138.3931716662274,137.0330481155177,137.5576629638672,276000
2024-03-25,137.17875500009464,139.94759563375453,137.1496105575705,138.88864135742188,316300
2024-03-26,138.76233765022266,140.20018449075258,138.55831173014377,139.12179565429688,314200
2024-03-27,139.57842625891035,141.01627324960145,139.57842625891035,140.5402374267578,218200
2024-03-28,140.69568229822846,141.21058725679168,139.55898965088838,139.7921600341797,247800
2024-04-01,139.6949673366477,139.6949673366477,138.07252940246653,138.23768615722656,204400
2024-04-02,137.80053208284255,137.80053208284255,136.3918296283509,136.625,202600
2024-04-03,136.66384822637758,137.16904326365426,135.88662851308266,136.8678741455078,258700
2024-04-04,137.79082770836482,138.68462526566978,136.95531904023974,137.71310424804688,403600
2024-04-05,137.35364110181234,138.69432997574083,136.9358793711853,137.69366455078125,288300
2024-04-08,137.6353754876347,138.3251619062476,136.39182981890286,136.50840759277344,312500
2024-04-09,136.42097007036026,137.08161202520498,135.39116023485812,136.31410217285156,242600
2024-04-10,135.0220165727078,136.2267082362223,134.50711150606764,135.4300537109375,200700
2024-04-11,135.2940122618255,136.05179747346585,134.50708260544775,135.167724609375,265300
2024-04-12,134.23507075984173,134.99285604404997,132.08801739599699,133.29269409179688,299200
2024-04-15,134.66251781624504,135.82833997705987,133.90473267050376,134.26419067382812,319600
2024-04-16,133.8658771295901,135.42031671806618,133.44813019942495,134.64309692382812,281700
2024-04-17,134.92483683201934,135.5077405185057,134.40993190471795,134.45849609375,565400
2024-04-18,134.44878861647487,135.46888861629466,134.28363182781587,135.14828491210938,246600
2024-04-19,135.0996946928591,135.93520326422384,134.81796015303922,135.37171936035156,276600
2024-04-22,135.5757619405855,137.1301866853224,135.28430266837407,136.32383728027344,298800
2024-04-23,135.78947777534367,137.13989120783145,135.5465975549377,136.1586456298828,417200
2024-04-24,136.36330826881738,137.28895835479415,136.06125543875743,136.42176818847656,559200
2024-04-25,136.25611957141976,137.62998708151534,135.3596994927864,136.58740234375,694400
2024-04-26,138.36076128932666,144.7039147819686,138.26331818639707,139.65667724609375,489500
2024-04-29,141.18644405478383,144.22649366798709,140.67002827732176,142.62852478027344,676700
2024-04-30,142.004909646234,142.35568398559658,140.36795777329885,140.6797637939453,585100
2024-05-01,141.2741247498313,143.43723060207003,140.87462887898343,141.6541290283203,359600
2024-05-02,142.02437958989475,142.9695211017198,141.56642381126906,142.18028259277344,356500
2024-05-03,143.33978450110888,143.3592760930588,141.12795714823582,143.04747009277344,303300
2024-05-06,143.97311219834887,145.25928957827287,143.38849828106964,145.22030639648438,260200
2024-05-07,144.51880499832362,146.52600814534517,144.51880499832362,145.88291931152344,392900
2024-05-08,145.8828911206105,147.00341231365334,145.64903662593957,146.9254608154297,223500
2024-05-09,147.13009939399845,147.84138644002505,144.82084365124953,145.25930786132812,299100
2024-05-10,145.13262025255216,145.18134179717063,144.29466023538959,144.68441772460938,186300
2024-05-13,144.72339575642974,145.64904569541716,143.09619715747255,144.08030700683594,167500
2024-05-14,144.49930037798347,144.50903874086748,143.69057022672388,144.1095428466797,137600
2024-05-15,144.16802780381772,144.53827890002992,143.00852322640148,143.5054473876953,211100
2024-05-16,143.5931171809895,144.10953286493412,142.67720563052816,143.75875854492188,235500
2024-05-17,144.06083161219536,144.3726227596562,143.3592829457471,143.88543701171875,169500
2024-05-20,143.80748238942644,144.60647413522753,143.27157510477068,144.37261962890625,163400
2024-05-21,144.14852481169098,144.86955021996388,143.32030307395482,144.7818603515625,280400
2024-05-22,144.2751813532465,145.0156982700934,143.69055256202734,144.97671508789062,283300
2024-05-23,144.85006990865986,145.1326311002017,143.77825531785473,143.9341583251953,171700
2024-05-24,144.67466674114488,145.01570269104084,143.58337548984295,144.29466247558594,162300
2024-05-28,143.83670944930827,143.99261245038466,142.08285272424865,142.95004272460938,318400
2024-05-29,141.91721406139058,142.94030718947772,140.80643105974093,141.1279754638672,229700
2024-05-30,141.410543437618,143.21312182875525,141.28387038236036,142.3946533203125,328100
2024-05-31,142.34593730463553,144.04134916751755,142.18029592394424,143.90493774414062,358900
2024-06-03,144.69413667450272,144.69413667450272,142.53103121964762,144.36285400390625,266200
2024-06-04,143.86595140573118,144.58699169506673,142.94030141967548,144.39212036132812,287900
2024-06-05,143.93415699679983,144.40185114677604,143.3105598409219,144.1290283203125,229200
2024-06-06,144.2167184531987,144.2167184531987,141.67360827716013,142.21926879882812,197600
2024-06-07,142.03414136730888,142.57978704249172,141.7223353427875,141.8197784423828,179100
2024-06-10,141.11820201101247,142.0730817548525,140.2997336591496,141.8587188720703,125800
2024-06-11,141.19618149643244,142.0049116476871,140.65053582034008,141.77105712890625,147700
2024-06-12,142.49208619477034,142.56028446504888,140.37770193248102,142.09259033203125,221300
2024-06-13,142.1510502401924,142.77464737345872,141.3033518363989,142.09259033203125,232400
2024-06-14,141.37155067038904,141.6541267179326,139.99768335221012,141.04026794433594,141500
2024-06-17,141.15718412148226,142.92079402863507,140.86488458704773,142.57977294921875,303800
2024-06-18,142.72593269483835,143.9049287478212,142.7161943322524,142.93055725097656,219900
2024-06-20,142.9013265736243,143.74902501392364,141.93669344423844,142.07310485839844,199900
2024-06-21,142.13156155358197,143.3690174832924,141.5859159092863,143.08645629882812,444100
2024-06-24,143.44697885929565,144.43108875923312,142.91107154042683,142.9597930908203,182900
2024-06-25,143.02797539856016,143.0377286281878,140.79667136986237,141.14744567871094,194500
2024-06-26,140.5530858194562,141.07923987621706,139.29615315358203,140.0269317626953,192400
2024-06-27,140.1828155517578,140.19256878158996,138.6238301546421,140.1828155517578,377300
2024-06-28,140.0951482862496,140.62131727928735,136.49971468217123,137.20126342773438,435100
2024-07-01,137.7566365411792,137.85406476284226,134.84326063403208,134.98941040039062,306400
2024-07-02,134.930951195947,136.899185643609,134.2294025783195,136.80174255371094,259400
2024-07-03,137.26944057578334,137.77610297313112,136.9673878360534,137.60072326660156,143300
2024-07-05,137.37664516545647,137.81510937338362,136.14892754198513,137.2889404296875,207000
2024-07-08,138.01969691787608,138.8479185192925,137.87354716126237,137.88328552246094,249300
2024-07-09,137.2499499009648,137.6494457254706,136.16839710030692,136.45095825195312,238400
2024-07-10,137.1427912342902,138.0002429282775,136.96741149746342,137.6689453125,142000
2024-07-11,137.5812505259672,139.62743658884474,137.14278633184458,138.4484405517578,244500
2024-07-12,139.73463281945706,141.76132750395777,139.73463281945706,140.88438415527344,263900
2024-07-15,141.0499897624226,141.95616283943195,139.47151295000685,139.7540740966797,319900
2024-07-16,140.16332247598208,141.5761579380773,140.16332247598208,140.85511779785156,178800
2024-07-17,140.6407683731012,142.03412724659594,140.6407683731012,141.14744567871094,242300
2024-07-18,140.90385313125856,143.47619311255724,140.89411476933762,142.5310516357422,434200
2024-07-19,142.83311887197172,142.83311887197172,140.95258895745775,142.1997833251953,251200
2024-07-22,142.24849707102436,143.7782525564522,141.5274568267193,143.41773986816406,235700
2024-07-23,144.08032781477473,144.70392506172618,141.9367132076123,142.29722595214844,234500
2024-07-24,142.3264523213691,142.87209798322195,140.21205308009542,140.44590759277344,250600
2024-07-25,139.6053057678811,140.79776282361163,138.0316544018294,138.29556274414062,558100
2024-07-26,139.89854478345555,147.87430433163027,139.13615611277922,143.34884643554688,562800
2024-07-29,143.27066227743248,145.00070512899177,141.89249229543964,144.46311950683594,390900
2024-07-30,144.05263141790599,144.56088072748767,142.1271065818577,142.4594268798828,411000
2024-07-31,143.1924622534942,145.48941215296958,142.12707481683992,143.66162109375,280600
2024-08-01,143.56388751848672,146.1638212279078,142.14661231103588,143.7104949951172,335300
2024-08-02,143.2706626945803,143.68117855788788,140.50455386188017,142.4007568359375,213500
2024-08-05,140.19175816641953,140.19175816641953,136.33094072792318,137.50384521484375,448500
2024-08-06,138.13919923295967,142.79172750727204,137.92416497226154,141.6579132080078,476000
2024-08-07,142.71350311829138,143.93528166502995,140.2308556736058,140.35792541503906,353600
2024-08-08,141.19852534854527,142.8601413739707,141.19852534854527,142.273681640625,268600
2024-08-09,142.12708691616425,142.12708691616425,140.2308838444139,140.70004272460938,263200
2024-08-12,140.71957168840052,140.92482213895457,139.54666722808057,140.05491638183594,221100
2024-08-13,140.269965572886,142.01956104764162,139.86923348856917,141.1105499267578,212000
2024-08-14,140.87598685966623,141.54062736485398,140.25043671360459,140.6511688232422,115700
2024-08-15,141.72633364426625,144.01349986295762,141.72633364426625,143.69094848632812,277500
2024-08-16,142.8112726046603,143.52478720605873,142.32256111329048,143.40750122070312,250600
2024-08-19,143.01653650230918,144.39469155874292,142.62555836471478,143.65185546875,191200
2024-08-20,143.66162057853262,144.961594887798,143.66162057853262,144.76611328125,387200
2024-08-21,144.8247581748117,146.19315926720975,144.13079622530404,145.9585723876953,267300
2024-08-22,146.19315832348536,147.004406250368,145.313468716703,145.62625122070312,200400
2024-08-23,146.28112932183024,147.13148255671317,146.0660950693302,147.04351806640625,221400
2024-08-26,147.27810094238174,149.2231782196865,146.75029904717988,146.7698516845703,235500
2024-08-27,146.62319560495607,148.1186513646186,146.45703551102568,147.7863311767578,208300
2024-08-28,147.52245420253917,148.53898252947062,147.52245420253917,148.11868286132812,249000
2024-08-29,149.10588837840956,149.45776127089994,147.7961450785867,148.84197998046875,187100
2024-08-30,148.76376076539145,149.97577051724159,148.21640633368162,149.73141479492188,178500
2024-09-03,148.67581490735162,148.93972329651422,146.34954336691524,146.6525421142578,362400
2024-09-04,146.22250262276373,147.49314072912452,146.22250262276373,147.3269805908203,175800
2024-09-05,147.66905729781163,148.33369772794828,146.56456461999554,147.3171844482422,200600
2024-09-06,146.9848666423844,149.66299595561912,146.9848666423844,148.93971252441406,319100
2024-09-09,149.1254035297758,149.60433115590843,148.02091099487063,148.4803009033203,241500
2024-09-10,148.4412283503302,149.34045573341479,148.02094361320775,148.08935546875,158100
2024-09-11,147.38560462789548,147.47358403097817,145.27438232544125,147.43447875976562,178000
2024-09-12,147.48334040431294,148.57804927691873,146.58411312834534,148.52919006347656,200400
2024-09-13,148.75401548591918,149.55549462674657,148.47055445109223,148.84197998046875,138600
2024-09-16,149.58479366168226,149.71186341092198,148.63670717231366,149.5359344482422,182900
2024-09-17,150.52312888636465,152.05769002153292,148.44121330516873,149.5750274658203,259900
2024-09-18,150.28854503898594,151.97949745395337,149.26226288919727,149.6141357421875,214200
2024-09-19,151.52009072611202,155.2245166759197,151.52009072611202,153.35763549804688,412400
2024-09-20,152.78099315792383,152.78099315792383,150.9923072031144,152.39002990722656,663300
2024-09-23,152.64415429489316,153.3674527132962,151.24644650721436,152.43890380859375,315800
2024-09-24,152.65389777391002,153.5335873118005,152.50729030807304,153.09375,246200
2024-09-25,153.74863062888252,154.30575394629471,152.35090807666947,153.5922393798828,284100
2024-09-26,154.37420696195807,155.46891606253078,154.13962004856694,154.8042755126953,371600
2024-09-27,155.09747820529003,157.90269242436605,154.68696232514782,156.28016662597656,354300
2024-09-30,155.693720288531,156.79821317298516,155.34184737313012,156.5734100341797,289800
2024-10-01,156.91549130804347,156.91549130804347,155.4591404954803,156.35836791992188,192200
2024-10-02,156.25081826197203,156.49517397582386,154.39372080241395,155.16587829589844,186900
2024-10-03,154.42307461105972,156.83731076228608,153.10354751440676,155.35162353515625,367000
2024-10-04,156.32903970950474,157.82449573222064,155.7328110726232,156.95458984375,350500
2024-10-07,155.79144712681207,156.03580287015131,154.4425986510062,155.1072540283203,223300
2024-10-08,154.70652836271876,155.42982683188535,153.55317625397822,155.0877227783203,205900
2024-10-09,154.77495491756642,156.4365712161612,154.55013686472589,156.09446716308594,152600
2024-10-10,154.4817068065256,155.7816811750794,154.4817068065256,155.6252899169922,168500
2024-10-11,157.3064660526596,158.26433645347558,156.7297900399239,157.90269470214844,194400
2024-10-14,161.26503180438755,163.97248287121053,159.76957575499546,163.4153594970703,469700
2024-10-15,163.54240800657777,165.82957403020615,162.73114520381247,164.87168884277344,397300
2024-10-16,164.89123875307473,165.37995019864655,162.1740043088386,162.29129028320312,330000
2024-10-17,163.21007464638268,164.5198326911605,162.76046845617475,164.0995330810547,238200
2024-10-18,165.28222016135715,165.28222016135715,163.99201476040307,164.8228302001953,171500
2024-10-21,164.66643721782916,164.68598985183766,162.5454313137494,162.5747528076172,217900
2024-10-22,161.97853331620303,162.613852271317,161.0890748476109,162.06649780273438,228500
2024-10-23,162.75068294015622,164.1874958071609,162.40859387114415,163.8649444580078,318100
2024-10-24,164.96261949009553,164.9724146419279,162.8358901424772,163.22792053222656,547300
2024-10-25,165.5506581898616,166.4621158464969,161.32662941673635,165.54086303710938,518900
2024-10-28,166.51109693898178,167.9909874127624,165.39383645811452,165.72706604003906,350000
2024-10-29,165.65844142123623,166.1092726098588,164.29616765842155,165.33502197265625,338100
2024-10-30,164.9920484370092,166.80513883198944,164.76662531600283,165.65847778320312,290300
2024-10-31,165.7172316312858,166.88349761091388,164.5117700942309,164.56077575683594,329900
2024-11-01,164.74701596713246,167.57937026995276,164.27657947244072,166.0308837890625,316300
2024-11-04,166.24649215601715,167.16774490614142,164.82540251348084,164.90380859375,191800
2024-11-05,164.39418823784416,166.96192375931884,164.39418823784416,166.9129180908203,206200
2024-11-06,171.65636686685428,171.65636686685428,168.70641117551688,169.70606994628906,264100
2024-11-07,170.72533703485217,171.96021416270565,170.07849805877953,171.2251739501953,412300
2024-11-08,171.21535702617146,174.29272466184403,171.0095541493443,172.25421142578125,309200
2024-11-11,172.80306637183605,174.47894973522423,172.39143067982758,172.63644409179688,189100
2024-11-12,173.12646726649535,173.70471027192264,171.46037909110905,172.19541931152344,179800
2024-11-13,171.99942016601562,172.87166733962042,171.55839900263027,171.99942016601562,168400
2024-11-14,171.65636354138798,172.28359717955007,170.44110677931556,170.6273193359375,198200
2024-11-15,169.51988737911785,170.29412321163434,162.85551931889682,163.1691436767578,620500
2024-11-18,163.07110850953194,164.47259285308147,161.05220060257204,163.36512756347656,384400
2024-11-19,163.10050135971352,164.32556823234182,162.88488839377655,163.5709228515625,287600
2024-11-20,163.6689523651395,165.57025875538363,162.3458740139482,165.36444091796875,221800
2024-11-21,165.32523474432278,166.8345106222636,164.39418686832857,166.4915008544922,205100
2024-11-22,166.7855161620559,168.63783184110315,166.7855161620559,168.0889892578125,241600
2024-11-25,168.61822873869966,170.54893557134125,168.31441450843965,169.0592498779297,270100
2024-11-26,169.41206482132665,169.41206482132665,167.74597670276387,168.60841369628906,140300
2024-11-27,169.22586404114253,170.41173555223975,168.0988083114946,168.3046112060547,167200
2024-11-29,169.14745603968092,170.0295132982539,168.65742921417322,169.5100860595703,117300
2024-12-02,169.52965410896684,169.65706585229,167.43234016931376,169.3140411376953,170900
2024-12-03,169.99030199549844,169.99030199549844,167.6773747915681,168.96124267578125,160100
2024-12-04,168.46139595900706,169.44144946157957,167.61854934861756,169.14743041992188,173400
2024-12-05,168.57901699001582,169.0004478209138,167.1285418265622,167.6871795654297,245000
2024-12-06,168.17722694028024,169.2062713986826,167.44218663888816,167.73619079589844,209200
2024-12-09,168.1380073390018,170.00991346121765,166.83453414703942,167.38336181640625,301700
2024-12-10,167.31474873040528,167.9517775769901,164.8352143640773,167.50096130371094,287000
2024-12-11,168.45160053013603,170.6273204986179,168.32418878959396,168.87301635742188,418600
2024-12-12,168.24581581973277,169.15727353126965,167.37356863043004,168.21641540527344,178300
2024-12-13,167.5009593612563,167.58916059355795,166.43270455823205,166.80511474609375,153200
2024-12-16,166.74632140113093,167.52055717676743,164.24718169284583,164.28639221191406,236100
2024-12-17,163.57093094101776,163.5807410473189,159.59191593464618,159.83692932128906,511900
2024-12-18,160.42498045548814,161.14041541532916,154.7602716927562,155.05429077148438,468600
2024-12-19,155.34830616944112,158.34728304478696,155.0738923305623,155.7011260986328,404700
2024-12-20,155.55410914655246,156.59296357357135,154.32904214215637,155.02487182617188,730200
2024-12-23,154.0350301134896,155.7305187378595,153.82922722182215,155.3581085205078,194900
2024-12-24,155.61291680874774,156.2401505443862,154.77007007450553,156.1715545654297,100500
2024-12-26,155.26008773522096,156.44595915755792,155.26008773522096,155.6815185546875,164500
2024-12-27,154.6720636172203,156.39695253937097,154.46624578488056,154.99546813964844,145000
2024-12-30,153.86842421673967,154.34865589247661,151.90831690187673,153.6038055419922,221700
2024-12-31,154.14281786238718,155.09347098198026,153.0647529985919,153.96641540527344,317100
2025-01-02,154.50542966476186,154.95626085871288,150.38920791910837,151.08505249023438,239400
2025-01-03,150.9674458911304,152.61394367101406,149.82078500459767,152.39833068847656,250700
2025-01-06,150.92824108328222,151.55547473376282,148.41930648135983,149.86978149414062,369000
2025-01-07,152.80993693958266,152.94714382872445,149.55616715946428,150.36959838867188,361200
2025-01-08,149.84040933022172,151.18307811143225,149.05636338071972,151.0752716064453,228600
2025-01-10,149.67378625415643,151.22227272909234,149.5365793490067,150.38922119140625,350800
2025-01-13,149.87959178115395,151.61429086251573,149.87959178115395,150.82044982910156,349300
2025-01-14,151.72206970761079,152.34930330712245,150.4185968460073,151.52606201171875,196900
2025-01-15,153.0059656935918,153.7900115770172,151.09486413391397,152.45713806152344,206100
2025-01-16,152.7805291601192,154.03499635872686,152.21209637412062,153.2901611328125,346300
2025-01-17,153.83901445152966,154.79946279018606,152.5747369358163,152.9765625,231900
2025-01-21,153.59400049694958,157.0633836408648,153.59400049694958,156.6419677734375,270900
2025-01-22,156.16174421991363,157.54362344855716,155.18169057482152,155.8971405029297,280000
2025-01-23,155.29930636956567,156.62236981086585,154.58385644519683,156.4361572265625,149800
2025-01-24,156.46556533744905,157.26921653989086,154.0840420532797,155.1425018310547,329600
2025-01-27,155.09348331003815,155.75011743220608,153.52539155704252,155.29930114746094,317000
2025-01-28,154.42704949078208,157.15159724174742,154.42704949078208,155.2600860595703,204300
2025-01-29,155.61291457845172,155.65212509823508,153.49599514310032,153.97622680664062,265800
2025-01-30,154.67206164041292,155.51489335460406,153.4567898296652,154.9758758544922,274200
2025-01-31,154.7504362172729,156.21072126443022,153.63317586480466,154.01539611816406,834100
2025-02-03,151.49670519361857,153.62341996252314,151.06547916592677,152.8687744140625,364600
2025-02-04,152.9765565302281,155.299293635513,152.9765565302281,154.554443359375,302400
2025-02-05,155.56680214959917,156.92315132969566,155.07537302605425,155.6061248779297,262600
2025-02-06,157.1000621504914,157.1000621504914,152.70668448736413,153.76817321777344,446600
2025-02-07,154.9181067066418,155.19330580645521,139.60517395113374,140.7256317138672,1221500
2025-02-10,141.7871257185982,142.1213089214259,138.4847213993473,140.8239288330078,621900
2025-02-11,139.83121423337005,140.61750364616478,137.8556600216051,139.85086059570312,377300
2025-02-12,138.55351384739762,141.03032057107268,137.53133297854282,139.27099609375,423500
2025-02-13,140.3030162479326,141.3153590533059,139.0351356946295,140.3226776123047,665900
2025-02-14,141.22690931883105,142.81913494082784,140.27353558295644,142.30804443359375,512800
2025-02-18,142.30805005152797,144.76519586011813,141.43330674355897,144.3818817138672,489600
2025-02-19,143.63490379036486,144.96176842430987,143.11399011860314,144.51947021484375,331000
2025-02-20,144.45067143286263,144.8929546251905,143.41866731928027,144.16563415527344,283100
2025-02-21,144.50962590768984,144.86345542520576,142.71099377675264,143.83145141601562,451900
2025-02-24,143.67420452994452,144.76517773223307,141.88541040384698,143.11398315429688,353300
2025-02-25,143.3793614383485,145.7873610696006,143.22210052435642,145.17799377441406,336700
2025-02-26,144.13615069776068,146.62278077273558,144.10666615119783,144.12632751464844,735600
2025-02-27,143.72335768500795,144.65707002297643,142.86827580669944,143.13365173339844,262800
2025-02-28,143.65455331584818,144.4310046691492,142.15078151982524,144.23443603515625,348700
2025-03-03,144.45066986764067,146.2886098899811,143.19261258000728,144.07717895507812,394100
2025-03-04,143.04518692456787,145.41387896963047,142.65204961296442,143.43833923339844,490100
2025-03-05,143.54644673744147,146.2984527664409,143.54644673744147,145.89547729492188,445100
2025-03-06,145.0305783147466,148.90304268241346,144.53914913097626,148.5590362548828,471700
2025-03-07,147.92999453807744,150.7311466390258,146.62279122411667,150.1610870361328,480200
2025-03-10,149.46323979987926,151.36014875114464,147.6646076611565,147.98895263671875,391100
2025-03-11,147.76290385774493,147.9791338698189,144.74553686653798,145.3549041748047,304000
2025-03-12,145.69890235666847,145.69890235666847,143.0648346293028,143.5267791748047,299700
2025-03-13,143.900274240468,144.67672562820923,141.29569098355023,142.27854919433594,238400
2025-03-14,142.74047076256798,144.37201872901983,142.06229630680042,144.14596557617188,223600
2025-03-17,143.99853726172162,145.46300125443267,143.35968548483189,145.3057403564453,225200
2025-03-18,144.86347189053822,145.00107144092166,143.28106956251574,143.7921600341797,219900
2025-03-19,143.8314663428333,144.93227773224964,142.97638450227305,144.4604949951172,279600
2025-03-20,143.62507975791536,144.8929602918042,141.26621097787046,142.7110137939453,332800
2025-03-21,141.53158870516717,142.96656835609656,139.91970176702517,142.33753967285156,601900
2025-03-24,143.2515633066503,145.63990121148305,142.42596612946545,145.4531707763672,463800
2025-03-25,145.94462657089437,146.67193207582238,143.42849685961332,144.6865692138672,325200
2025-03-26,144.52931708933926,146.15102729750924,143.79217335885699,146.013427734375,630400
2025-03-27,145.73820579296662,147.32060801990121,144.50963310116106,146.7898712158203,312700
2025-03-28,146.73089236026235,147.42872827286658,143.2614041546856,144.41134643554688,239800
2025-03-31,144.06735434534886,146.5343229870739,143.59558661646503,145.8365020751953,372500
2025-04-01,146.3279137024049,147.4581944797028,144.85362660303,146.5441436767578,240000
2025-04-02,145.46300090804647,148.5393516047407,145.46300090804647,147.9496307373047,247600
2025-04-03,144.24427337200635,147.4778854578111,143.9494278906975,146.1215362548828,352900
2025-04-04,142.73068331492644,145.42372045194998,137.63946952988923,137.77706909179688,531600
2025-04-07,134.00287530876898,139.6837941624517,128.60699371434606,132.3418426513672,629900
2025-04-08,135.02506928764396,136.92197848483247,129.0296280479611,131.36883544921875,473800
2025-04-09,130.89704037690942,141.94437131089686,129.06893862699687,141.28585815429688,491800
2025-04-10,137.60014014324574,140.9123672890104,135.21180205228458,138.34710693359375,309000
2025-04-11,138.45524319829693,142.22943044846525,137.3446235232159,141.63970947265625,203000
2025-04-14,143.30073173513014,143.89043766986302,141.3251771111253,143.2908935546875,249300
2025-04-15,143.59560325421714,144.02804830741772,141.30554162152515,141.47262573242188,250700
2025-04-16,141.59054573403094,143.32038571345137,140.12609665726538,142.51443481445312,307700
2025-04-17,142.90756616049867,143.26139568732975,138.29797412661645,141.36448669433594,390600
2025-04-21,140.84356906765697,141.5807126444271,138.68128424190948,140.1359100341797,291600
2025-04-22,142.02301901433995,144.3032573833429,141.12861439560723,143.5169677734375,217800
2025-04-23,145.3352389782031,146.76039538307882,144.69638713943039,145.5121612548828,537000
2025-04-24,145.39422018085207,149.39446063467332,142.9665739929878,148.8637237548828,424500
2025-04-25,148.26414612424384,150.37728497964335,145.04037284864117,146.50482177734375,220500
2025-04-28,147.23217244152312,148.4410839192939,145.73822366585122,147.13388061523438,235200
2025-04-29,147.1928200180196,149.37476614585432,146.45567646124366,147.72357177734375,359900
2025-04-30,146.51468782594912,147.41891562430362,144.68657086484222,147.3795928955078,556200
2025-05-01,146.34446689472773,148.3949671666266,144.87560983167245,146.1768798828125,445300
2025-05-02,150.8200800146687,150.82993276495682,145.69382189987473,149.8441162109375,431600
2025-05-05,149.28220335297306,151.04682352421423,148.74001624656938,149.3314971923828,267600
2025-05-06,148.11895410159835,149.88355931551433,147.30072446354023,148.77944946289062,312000
2025-05-07,149.725822860132,150.97779905174502,148.4836843764286,149.24276733398438,318400
2025-05-08,149.6370904773431,152.3776743797429,149.0949033979698,151.18482971191406,302500
2025-05-09,151.72702915659627,152.11149701025283,150.77078589758978,151.14540100097656,231600
2025-05-12,153.58036864826659,154.36902497347126,151.52001546847515,153.314208984375,352500
2025-05-13,154.0930052362217,154.0930052362217,151.02711471213084,151.46087646484375,339400
2025-05-14,151.4411368076829,151.4411368076829,148.82872891175197,150.3173065185547,350100
2025-05-15,150.18915951898913,153.2747551350197,150.18915951898913,152.7522735595703,278100
2025-05-16,152.9790195330319,154.9210795243073,152.3973913234781,154.78306579589844,278600
2025-05-19,154.14229995484683,156.0942128107709,154.09300611132787,155.83790588378906,185400
2025-05-20,157.98696796016725,157.98696796016725,155.6703079013984,156.28150939941406,388100
2025-05-21,154.6352065192766,155.41399508535244,153.61981653246397,154.23101806640625,319800
2025-05-22,154.14229666137166,155.02952565627956,153.35364030902645,154.4281768798828,278900
2025-05-23,152.9198641452087,153.964827320536,152.07206127878644,153.72824096679688,260500
2025-05-27,154.8027705397575,156.1927754755183,154.46759652531446,155.916748046875,352800
2025-05-28,155.91675648544185,156.58710455060864,155.02951252332593,155.1675262451172,364400
2025-05-29,155.59145747600414,156.4195399252891,154.59578798643793,156.08436584472656,232100
2025-05-30,155.99563159879617,156.52796596940533,154.31973126540694,156.15335083007812,335100
2025-06-02,155.30554827866962,156.813861590753,153.05788752213863,154.6844940185547,349600
2025-06-03,153.9648187854225,155.20695724316363,153.78737902995462,154.04368591308594,397800
2025-06-04,154.27045472728327,154.30002802372996,148.15837939391508,148.2766876220703,831900
2025-06-05,149.4300974054119,151.1651293846476,146.9359823542241,150.3271942138672,482400
2025-06-06,152.18050703516937,152.28894746522036,150.05115456510006,151.1355438232422,264700
2025-06-09,150.544055582443,151.007375533086,149.21319719105352,149.44979858398438,388400
2025-06-10,150.001860330608,150.82994268025288,148.7202957176617,150.36660766601562,323500
2025-06-11,150.82994254149838,151.4115707359019,149.4498052933599,149.7652587890625,380800
2025-06-12,149.2624939294629,152.4269567686982,149.2624939294629,152.16079711914062,337200
2025-06-13,150.829935873921,151.53972501083467,148.59212803830783,149.0160369873047,361200
2025-06-16,149.09489874958857,150.73134277186625,148.97659053611832,149.53851318359375,346200
2025-06-17,148.52313648415543,149.11461743433793,147.01483824975645,147.33029174804688,379700
2025-06-18,147.00497623832817,148.59214167031755,147.00497623832817,147.57675170898438,383200
2025-06-20,148.1583603569541,148.63156312403586,146.87681089594898,148.16822814941406,570500
2025-06-23,147.3697197894407,151.75660037829923,147.3697197894407,151.6087188720703,356500
2025-06-24,152.37767518899636,152.37767518899636,151.0073757093355,151.68759155273438,246600
2025-06-25,151.67773528253588,152.33823056724884,150.60319885109388,151.74673461914062,264700
2025-06-26,152.3382342669548,153.37334468009956,150.94822928479945,152.2889404296875,658200
2025-06-27,152.4663887853865,153.89581975146424,152.04247985366143,153.6099395751953,643100
2025-06-30,153.81695259670582,154.28028757107535,152.4170949235091,154.21127319335938,315500
2025-07-01,154.2112909513434,157.53350328229894,153.7479709659874,156.75469970703125,338300
2025-07-02,156.7645627082632,158.2531403852606,156.399800331021,158.04612731933594,293500
2025-07-03,158.3221432480809,159.07135840752164,157.55320754586447,158.75588989257812,235100
2025-07-07,158.66717993630388,160.0670377135844,158.27285931033134,158.6770477294922,313900
2025-07-08,158.61788810431491,160.2740678475626,157.58279268744894,157.7799530029297,342700
2025-07-09,157.66163784587226,157.7405049770696,155.85760674831414,157.4644775390625,252800
2025-07-10,156.93216884062392,158.08557261835003,156.08436584472656,156.08436584472656,361600
2025-07-11,156.31107345675375,156.31107345675375,154.40845469060778,155.66043090820312,292000
2025-07-14,154.9112304114943,156.6857034201191,154.46761591993024,155.3252716064453,276600
2025-07-15,155.50272082835133,155.7590277372234,151.88477559675442,151.97349548339844,254200
2025-07-16,151.73689710833995,153.4029296552156,151.37214976104823,152.7818603515625,261900
2025-07-17,152.5452588316346,154.1915706701163,152.31851019393284,153.81695556640625,397700
2025-07-18,154.62533756237983,154.98023213510643,152.72270372898328,154.16200256347656,243100
2025-07-21,154.20143682439874,154.44789098408017,153.03818041103906,153.2451934814453,205900
2025-07-22,153.8958183896831,157.09972209739536,153.0282950337299,156.91241455078125,449900
2025-07-23,157.79966646117234,159.5544187621791,156.88284922392322,159.3671112060547,450500
2025-07-24,159.1199843382774,162.40202374818793,157.96334597762163,159.97015380859375,431900
2025-07-25,160.19750774667867,161.22561221674488,158.94202169024894,159.14962768554688,296300
2025-07-28,159.35722424092228,160.12830639187274,156.35198291982778,156.88580322265625,308500
2025-07-29,157.23180681567746,157.7755224517839,155.4227248360997,157.0044403076172,388200
2025-07-30,156.98466705246165,157.11317068883088,153.1490167817767,154.9976348876953,580700
2025-07-31,153.99917438750097,155.55123391765005,153.4060273513415,155.3436279296875,679700
2025-08-01,155.1755793394096,156.31242693918023,139.47710868616434,139.73414611816406,1012300
2025-08-04,141.48391404841098,141.48391404841098,135.51296714998165,137.53953552246094,839000
2025-08-05,137.7471203907678,139.4573546226765,136.1159885271504,138.6170654296875,540800
2025-08-06,138.70603871474566,139.1508915064958,135.97759518556805,136.95626831054688,515300
2025-08-07,138.2018575966745,139.87254051260254,137.32203237332467,138.88397216796875,564000
2025-08-08,139.08167952516152,140.42613304538742,138.9729364064537,139.1409912109375,428700
2025-08-11,139.71437362843554,140.00105182700324,137.60871811175764,138.27105712890625,349500
2025-08-12,138.61704399688827,139.47709356461323,137.63835597942716,137.885498046875,286100
2025-08-13,138.0931027842477,139.82309724089322,137.65813033593722,139.81320190429688,729900
2025-08-14,138.58740244327777,138.58740244327777,134.8802710493718,136.758544921875,875800
2025-08-15,136.77831584476164,137.36156754391794,136.29391192878876,137.1342010498047,770500
2025-08-18,137.30225854285285,137.97449286968606,135.7798699097183,136.31369018554688,529500
2025-08-19,136.6893602194093,138.9136391735608,136.6893602194093,137.9942626953125,333100
2025-08-20,138.3105996295714,139.6352775807112,137.6680211600025,139.56607055664062,519200
2025-08-21,139.02239208429995,140.27786321045522,138.63685097516378,139.0322723388672,270400
2025-08-22,139.64514711005958,141.6914906506962,139.57595517565812,139.81320190429688,356500
2025-08-25,139.35848463440877,139.99116778923627,137.3714676366746,137.964599609375,245800
2025-08-26,137.4802014096915,138.5577372418402,136.43230633558758,138.11288452148438,442900
2025-08-27,137.49997281529963,138.96306488334525,137.44066112579765,137.84597778320312,729100
2025-08-28,138.56761226962325,138.56761226962325,135.82927394454933,137.30224609375,320800
2025-08-29,137.57905461233506,138.2710494362034,136.76843641419092,137.67791748046875,370700
2025-09-02,135.84906508939116,136.94637659553402,134.6133546133004,134.85061645507812,310600
2025-09-03,134.5243943101381,134.62324210292473,132.9031426817368,133.67422485351562,382300
2025-09-04,134.79130216014153,136.8969425133348,133.49626493537275,136.87718200683594,401800
2025-09-05,137.43077574465525,139.21020178510477,136.0566663464884,137.03533935546875,440800
2025-09-08,137.005687591299,138.3995726215184,136.1060867490136,136.71900939941406,616100
2025-09-09,136.67946624256135,137.88552093868483,133.55560145550504,135.48330688476562,637100
2025-09-10,134.5738357125756,135.88863363727893,133.30846923010407,134.6924591064453,685100
2025-09-11,135.18672513791338,136.6992335433112,134.31678014184178,135.53273010253906,477500
2025-09-12,135.05820672958419,135.4832989752159,133.67421703664533,133.68409729003906,261300
2025-09-15,134.41564821558472,134.6133588811563,133.09097016346266,133.30845642089844,298000
2025-09-16,133.2491251648004,133.8719280705481,132.56702565416762,133.66433715820312,474800
2025-09-17,133.87191960070743,135.5030663734287,132.65598479511914,133.1107177734375,377400
2025-09-18,133.35785413721098,133.96088138776295,132.5373557439718,132.96243286132812,254800
2025-09-19,133.12063874406192,133.55561130054514,131.81572107461227,132.9031524658203,877200
2025-09-22,132.58679434770661,133.39742770900972,131.1533731265575,131.2028045654297,402100
2025-09-23,131.48947627590215,132.41873297707602,130.46137178622766,130.51080322265625,319700
2025-09-24,130.49103409799787,131.7860563410793,129.83857530726212,129.9967498779297,353300
2025-09-25,129.99674318999885,131.0050871706818,128.7808082948073,129.32452392578125,388700
2025-09-26,129.82869272268246,130.9161089366979,129.46292723339218,130.7777099609375,274400
2025-09-29,130.88643819323417,131.16323611324975,129.85833378808422,130.7579345703125,540600
2025-09-30,130.20434429084327,132.23089734514227,130.20434429084327,132.13204956054688,310400
2025-10-01,131.8058293753404,132.82405364216999,130.7974853623518,132.6065673828125,310100
2025-10-02,132.1320554290962,132.85370613455356,131.44006056877018,131.65753173828125,398500
2025-10-03,130.95565622479634,132.0529677443783,130.91610504183745,131.69708251953125,402000
2025-10-06,131.37085466398543,131.67730845586786,129.90777764901935,130.37240600585938,447100
2025-10-07,130.59976556964224,130.99518687665005,128.32605534345748,129.09713745117188,438800
2025-10-08,129.68039176507327,130.50090532374472,128.77091067319023,130.10548400878906,361300
2025-10-09,130.19444872342635,131.32141603944422,128.71159619791044,129.11691284179688,554200
2025-10-10,129.4431381350315,130.5008983927555,128.40513838295638,129.43324279785156,426000
2025-10-13,129.49257085556,130.83702438647268,128.67205733230725,128.7313690185547,311400
2025-10-14,128.55343940983934,129.5617834901798,127.56487092285874,128.31619262695312,337400
2025-10-15,128.31618340743444,128.8994351526004,126.39835826699053,126.6356201171875,438300
2025-10-16,126.97172413317051,128.01960419415852,126.38846487166605,127.6834945678711,352700
2025-10-17,127.68349224387053,128.61274891028023,127.37703846757714,127.8614273071289,339700
2025-10-20,128.12834444492697,128.6028530293001,126.55652438869629,128.51388549804688,240500
2025-10-21,129.11691341640903,130.2636563281568,127.64394113747322,129.07737731933594,311600
2025-10-22,129.1564481138655,130.59976453326686,128.49410913348765,128.5731964111328,357500
2025-10-23,128.73197123448563,130.50805690169727,128.65259098954968,129.75396728515625,378600
2025-10-24,129.73411268037526,129.87302431778892,127.54127703952456,127.87864685058594,489300
2025-10-27,128.1366224648553,128.89071205489756,127.45198112404552,127.7794189453125,521700
2025-10-28,127.74965710905877,128.10686063940022,126.47960347678546,127.1047134399414,413500
2025-10-29,126.29107194406481,126.50936382227088,122.46106236313027,123.34414672851562,651100
2025-10-30,123.0762548978033,124.54475159294849,122.08402453671503,123.39376831054688,702600
2025-10-31,114.39423553008093,117.18240033192052,102.42794018569283,115.108642578125,2758200
2025-11-03,115.18801418737364,115.18801418737364,107.44862223530946,112.24109649658203,1661000
2025-11-04,113.47146370471108,115.09872087701821,111.65568034301285,113.29286193847656,1029100
2025-11-05,113.44169462480497,115.13840756841266,111.89381017352693,114.67205810546875,896900
2025-11-06,114.12632587945619,116.05125508565277,112.91581127124762,115.24755096435547,880300
2025-11-07,115.32693339499808,116.01156716794395,113.79889779417432,115.31700897216797,697200
2025-11-10,115.08879219606841,115.86273063108003,113.11425598749823,115.47576141357422,514000
2025-11-11,116.05125494853503,118.58144524090463,116.05125494853503,117.35107421875,484800
2025-11-12,117.42052991643766,118.74019803055835,116.99387815530137,117.24193572998047,547500
2025-11-13,117.38085119077797,120.93303002263367,117.38085119077797,119.26608276367188,679400
2025-11-14,118.8394216459119,119.75227929014665,117.47014653473461,117.68843841552734,521200
2025-11-17,117.56937122538191,118.56160156840677,116.65652112662708,118.41276550292969,820200
2025-11-18,118.73028226930452,119.1767828797841,117.14270772067383,118.38299560546875,817400
2025-11-19,118.5814455351289,118.5814455351289,116.79542796312874,117.08317565917969,598900
2025-11-20,117.08317313835506,118.68066449610633,116.45807078667181,117.6586685180664,507400
2025-11-21,117.21216086173891,121.29022793939164,117.21216086173891,120.57582092285156,509100
2025-11-24,119.91102909425057,121.44898907258941,119.5042186116015,120.52621459960938,740000
2025-11-25,121.45891525209124,123.11593804438662,121.45891525209124,122.48091125488281,543600
2025-11-26,122.06416725085363,123.55251268958358,122.06416725085363,122.84803009033203,538000
2025-11-28,122.66943052847252,125.10039933060551,122.66943052847252,123.78073120117188,315700
2025-12-01,123.90971816318398,123.9890984046682,122.07409360703122,122.32215118408203,536800
2025-12-02,122.80834273936739,122.8976474041654,119.86142506313116,120.65520477294922,325400
2025-12-03,120.50637218565886,123.29454459847216,120.46668963362305,121.11163330078125,543100
2025-12-04,121.25053931737644,123.11593712141129,120.9826404679227,121.07193756103516,708000
2025-12-05,121.0421717426921,122.55036603254122,119.6828210814482,120.96279907226562,537000
2025-12-08,119.98048683677486,121.15131890116776,118.37307858523162,119.13709259033203,496600
2025-12-09,118.67074319979267,118.91880077653559,114.46368881786525,114.82089233398438,640300
2025-12-10,115.26739038159026,116.88473059087394,114.23546997686611,116.2596206665039,734700
2025-12-11,117.04348695770692,117.74796957239353,116.2497072483959,117.09310150146484,389700
2025-12-12,117.59913070053165,120.69489193216835,116.7358951926614,120.52621459960938,656400
2025-12-15,120.53613763713133,121.508519071394,119.54390735802136,121.37953186035156,588600
2025-12-16,121.71688801826957,122.88772006482098,118.59136108661724,121.87564849853516,644800
2025-12-17,121.16123927977195,123.63189054068698,119.14701303616661,122.66942596435547,567300
2025-12-18,122.70911937736454,123.15562755440962,121.08186229106413,121.66728210449219,457100
2025-12-19,122.38168448192317,123.36399795279324,120.31785116207733,120.44683837890625,1300400
2025-12-22,120.44683702770696,122.73888662712453,120.1293236305144,121.78634643554688,527800
2025-12-23,121.91534038479175,122.07409329724082,120.37738038293297,121.2406234741211,311700
2025-12-24,121.57797277960053,122.21299954160835,120.8139588087873,121.7962646484375,198000
2025-12-26,121.41922894554897,122.52060522415447,120.77427771310445,122.29238891601562,306000
2025-12-29,122.33207341633238,123.34414498172643,121.36960882339034,122.25269317626953,400200
2025-12-30,121.8458854019756,123.3342308707125,121.46883303835433,121.78634643554688,289800
2025-12-31,120.57582164498164,122.37176361957204,120.40714431232067,121.01240539550781,314300
2026-01-02,120.79411100995517,122.04432327040651,119.84157085869765,121.58789825439453,295100
2026-01-05,120.81396333104647,123.61205247154165,120.81396333104647,122.04432678222656,435700
2026-01-06,121.2703893294616,121.89549169761267,119.17678277613919,119.62328338623047,777200
2026-01-07,119.73242778357526,121.0024813489251,116.69620550577852,119.50421905517578,478500
2026-01-08,118.98826090452039,122.41146012961788,118.59136725333443,121.48868560791016,330000
2026-01-09,121.13148146291526,123.9990265337246,120.51629592819934,122.88772583007812,429100
2026-01-12,123.0365583546262,124.32646078477775,122.02448676997972,124.15777587890625,477300
2026-01-13,124.07840343065625,124.46537264637453,121.58790323017156,122.54044342041016,351900
2026-01-14,123.1457089980577,126.1720145851002,123.1457089980577,125.86441802978516,611700
2026-01-15,126.15215809530929,126.23153833510459,123.5525120178855,124.13793182373047,381000
2026-01-16,123.03656046752509,124.22723383109965,122.28246329986567,123.74104309082031,363400
2026-01-20,123.92956647771405,124.55466884396232,122.4809111423571,122.85795593261719,275100
2026-01-21,123.34414579788033,124.64397263463209,122.93733531257004,124.03871154785156,421000
2026-01-22,124.07840219082979,125.42783600604635,123.09608874217598,123.5029067993164,369700
2026-01-23,123.37391303470616,125.29884225734148,122.90757114819523,125.0210189819336,429500
2026-01-26,125.43775721229031,126.00332820078921,124.12801347207618,125.36830139160156,315400
2026-01-27,123.9791728132312,125.3186897727715,123.205234391347,123.77080535888672,303100
2026-01-28,123.235006777915,124.09824991001042,122.29239097089199,122.7388916015625,347800
2026-01-29,123.32430960117436,124.30661551602421,121.63751348474041,122.88772583007812,386000
2026-01-30,121.95503612712301,124.03871835108907,121.70697853926713,123.97917938232422,512700
2026-02-02,123.23499750184895,124.93171793896286,123.23499750184895,123.860107421875,489100
2026-02-03,122.94725978548665,126.93602225021577,122.72896790883826,123.66165924072266,658700
2026-02-04,125.21552867481128,129.90700134775133,124.20949930267037,128.7216796875,589400
2026-02-05,127.16782066467043,128.5722782146923,121.48028130551128,123.49234008789062,2144200
2026-02-06,127.02836268310486,135.45509216979158,127.02836268310486,133.7816925048828,1045700
2026-02-09,133.05457384055362,139.02101804829903,132.72587004959905,137.9253387451172,1043400
2026-02-10,137.26793457923543,140.37565748193367,137.26793457923543,139.61865234375,622100
2026-02-11,138.48313331396238,139.99715874839507,138.05483198642824,139.4592742919922,584300
2026-02-12,139.60869173387061,141.44145054391814,138.84171623230802,139.95730590820312,572700
2026-02-13,139.9573151020267,142.3677944950846,139.85771755943315,142.01918029785156,471900
2026-02-17,138.71222079286514,143.055071512211,138.71222079286514,141.0928192138672,614700
2026-02-18,140.9135352437976,142.54708376856578,140.2860084572567,141.1625518798828,582000
2026-02-19,141.0928230678908,142.7562676088946,140.4752666602554,142.59689331054688,525500
2026-02-20,142.55704525117903,144.56910401516237,141.44145553591065,144.47946166992188,664500
2026-02-23,142.9255958993581,145.6647789342487,142.5670113304762,145.14682006835938,513500
2026-02-24,145.49544486452967,146.33213709933392,143.28417595914058,143.57302856445312,429800
2026-02-25,141.8498473766502,143.0949306198296,139.87762457633954,142.1187744140625,348900
2026-02-26,142.95547535989397,143.35389589996325,140.44538340090327,141.23226928710938,331300
2026-02-27,140.97329664666827,143.44353741820976,140.44538259466083,143.1447296142578,344600
2026-03-02,142.43751420451355,142.78614357053576,141.06293752550724,142.1088104248047,335000
2026-03-03,140.08679425249235,140.76412738697488,136.38142559574294,139.2102508544922,347300
2026-03-04,138.79191754238275,138.9612470419286,135.47501391314069,136.50096130371094,389000
2026-03-05,135.46505150535157,135.80371048641027,133.88130933030985,134.20004272460938,452300
2026-03-06,133.47291651624107,133.47291651624107,130.48471689274314,131.5604705810547,398500
2026-03-09,130.45484354440993,133.45299853256722,127.02837201579013,133.22390747070312,545700
2026-03-10,132.82547764917305,133.60240832546756,130.88313575966777,131.6102752685547,503100
2026-03-11,131.2815812945587,132.75575561111177,129.5284943463408,131.50071716308594,563800
2026-03-12,130.7536581494707,132.26766833775483,128.13399830193273,128.35313415527344,620600
2026-03-13,129.6380511924889,129.6380511924889,126.55025410703881,128.14395141601562,660600
2026-03-16,128.97069022910543,130.8931065380538,125.50438295551326,128.54238891601562,370700
2026-03-17,129.45876833048925,130.50464122844355,127.73557748644285,128.99061584472656,276700
2026-03-18,123.89075860801685,126.08210964583039,120.94240244020646,123.73139190673828,910500
2026-03-19,122.52615308632394,124.32903117833895,120.97228404186016,123.48237609863281,518500
2026-03-20,123.77123411184346,123.77123411184346,119.83676660084556,120.58381652832031,1481500
2026-03-23,123.02418368013113,125.84304628604973,122.50622481021608,123.65170288085938,455200
2026-03-24,122.67556308818467,124.72745780194329,122.38670286935901,123.66166687011719,405000
2026-03-25,124.94659356774676,126.07214606142944,123.22339504970952,125.3250961303711,337200
2026-03-26,124.72746089618293,126.83911722505529,123.6317891558115,124.19954681396484,442100
2026-03-27,123.45249678230496,123.72143142045898,121.28107129127055,121.51016235351562,381400
2026-03-30,122.07791483255923,123.45249154525831,120.62365857080745,122.87477111816406,562000
2026-03-31,123.90072145898677,126.46061226934556,123.1038651540704,125.52430725097656,557800
2026-04-01,126.83910993884153,128.13399948450484,125.83308820196113,126.25143432617188,380200
2026-04-02,124.64777023751822,126.5900970135599,123.76127159620845,125.51435089111328,297500
2026-04-06,124.0999305830527,125.6936431780852,124.0999305830527,125.51435089111328,461100
2026-04-07,124.82706080661809,126.6697824199569,124.30910953992999,125.11592102050781,376900
2026-04-08,130.86323514521675,132.1481543754263,127.64592907491694,131.50071716308594,645200
2026-04-09,130.70386349661462,131.91906599267529,126.83912013545304,130.88314819335938,424100
2026-04-10,131.7298075164679,132.178034445579,130.3353203595067,130.98275756835938,407400
2026-04-13,130.28551770076956,131.89914077103793,127.07818194963497,131.59036254882812,396300
2026-04-14,130.71381054193466,132.197955189354,130.45483870763653,130.4946746826172,315500
2026-04-15,130.29547082253353,130.51460669263554,128.0941721257409,129.14002990722656,407100
2026-04-16,126.40084558822308,129.81735412824597,126.40084558822308,127.78536987304688,393800
2026-04-17,129.14002424182965,131.7796097617975,129.14002424182965,130.11618041992188,401100
2026-04-20,130.05641512792803,131.47082778766443,129.1499909308814,130.405029296875,403600
2026-04-21,130.18589466096142,131.72980084865796,126.1916732788086,126.1916732788086,310200
2026-04-22,126.77935427393615,126.77935427393615,122.47634691200882,124.06009674072266,458900
2026-04-23,124.88682675562279,126.93872910578784,123.95052932532681,124.44856262207031,440800
2026-04-24,123.9206456254592,123.9206456254592,122.08787918491913,123.5919418334961,440900
2026-04-27,123.55209914216728,125.73348737793874,123.05406585359005,124.23938751220703,359700
2026-04-28,125.62392082821759,126.15183490401432,123.23335949687649,125.2752914428711,354300
2026-04-29,124.64776713863216,125.4047798425139,122.30701227202618,122.41658020019531,448400
2026-04-30,122.94449532386469,125.58407321741664,121.40058912214994,123.19351196289062,764800
2026-05-01,126.70962950793603,127.97463072857443,117.4362520229959,118.55184173583984,989400
2026-05-04,118.21317963909578,121.27110367417347,116.9979772200526,120.12562561035156,739600
2026-05-05,120.42445055667139,123.22339520339091,120.34476340674007,121.55000305175781,628600
2026-05-06,123.18000030517578,126.38999938964844,121.66999816894531,122.62999725341797,917000
2026-05-07,122.94000244140625,126.47000122070312,122.56999969482422,125.11000061035156,749700
2026-05-08,125.2300033569336,125.86000061035156,120.38999938964844,120.98999786376953,794900
2026-05-11,121.22000122070312,121.22000122070312,119.44000244140625,119.95999908447266,706100
2026-05-12,120.44999694824219,120.86000061035156,117.13999938964844,118.05000305175781,696600
2026-05-13,118.0,118.75,116.43000030517578,117.87999725341797,679500
2026-05-14,118.7300033569336,120.16000366210938,117.04000091552734,117.98999786376953,531000
2026-05-15,117.91000366210938,117.91999816894531,114.47000122070312,114.66999816894531,447000
2026-05-18,115.5999984741211,117.31999969482422,115.16999816894531,115.80999755859375,433100
2026-05-19,115.88999938964844,116.04000091552734,112.44999694824219,113.61000061035156,575800
2026-05-20,114.06999969482422,115.44999694824219,111.55000305175781,115.26000213623047,562600
2026-05-21,116.5,116.5,112.7699966430664,115.51000213623047,345600
2026-05-22,115.80000305175781,116.80000305175781,114.70999908447266,116.2300033569336,405800
2026-05-26,116.19999694824219,116.97000122070312,115.37000274658203,116.37999725341797,344500
2026-05-27,116.94000244140625,118.11000061035156,114.7300033569336,115.30000305175781,464000
2026-05-28,114.80999755859375,116.33999633789062,113.3499984741211,115.98999786376953,510100
2026-05-29,115.05999755859375,117.26000213623047,113.75,115.8499984741211,559600
2026-06-01,114.69000244140625,115.12999725341797,112.02999877929688,112.37999725341797,706800
2026-06-02,111.94999694824219,113.05000305175781,111.23999786376953,112.18000030517578,452400
2026-06-03,111.69000244140625,114.0199966430664,111.69000244140625,112.52999877929688,372600
2026-06-04,114.94999694824219,115.76000213623047,111.54000091552734,112.55000305175781,337600
2026-06-05,113.08999633789062,114.58999633789062,111.9800033569336,113.36000061035156,466300
2026-06-08,112.26000213623047,112.63999938964844,110.94999694824219,111.94000244140625,422200
2026-06-09,113.27999877929688,116.1500015258789,112.66999816894531,115.9000015258789,444400
2026-06-10,116.1500015258789,116.55000305175781,113.37000274658203,114.66999816894531,496800
2026-06-11,115.11000061035156,117.01000213623047,114.26000213623047,116.58000183105469,395200
2026-06-12,117.9000015258789,118.47000122070312,116.37999725341797,117.72000122070312,342600
2026-06-15,118.69999694824219,120.73999786376953,117.55999755859375,118.08000183105469,576100
2026-06-16,118.5,121.05000305175781,113.7699966430664,120.6500015258789,474700
2026-06-17,121.62000274658203,122.28500366210938,120.12000274658203,121.63500213623047,174013
