Date,Open,High,Low,Close,Volume
2023-08-22,119.14912600366445,120.9189972448731,118.08142922757334,118.2641830444336,429600
2023-08-23,118.36999112470143,118.85093535301714,117.64857478222787,118.68741607666016,305000
2023-08-24,118.78358853483805,120.67850973057145,117.91788756488046,120.34185028076172,278400
2023-08-25,120.78433122188993,122.81391641913827,120.21682056433897,122.67925262451172,493000
2023-08-28,122.76582909708209,124.64151611321,122.76582909708209,124.47799682617188,331900
2023-08-29,124.85310877370199,126.93079109909763,124.46834463348918,126.79612731933594,472400
2023-08-30,127.3251694261685,128.18124955955412,126.68070592595714,127.82535552978516,298900
2023-08-31,128.20051079181377,128.6333577241951,127.20015311081568,127.50794982910156,305800
2023-09-01,128.0273554739826,128.69104615956167,127.46945842518569,127.4983139038086,252000
2023-09-05,126.66144594880058,126.9500153780096,122.50609607084371,122.70809173583984,325300
2023-09-06,122.91971901854386,123.13132830124047,121.39031265265571,121.59231567382812,291100
2023-09-07,121.47687760395863,122.32333668916188,120.370704561035,120.58232116699219,328600
2023-09-08,120.72660753492579,121.84239419256309,120.35147166964357,120.53422546386719,238800
2023-09-11,122.15020697473304,123.05438442733607,121.59231727500303,122.16944885253906,333500
2023-09-12,121.30374940797992,122.43877803875952,120.64004404886371,121.7077407836914,258000
2023-09-13,120.98631988463397,121.76544712808189,120.34185642798874,120.59194946289062,279300
2023-09-14,121.20756923679127,122.44840625475486,121.20756923679127,121.92898559570312,217900
2023-09-15,121.66927042883084,122.35221036140925,120.39957794288019,121.130615234375,589200
2023-09-18,121.54421485235763,121.54421485235763,120.15909325311112,120.85165405273438,175100
2023-09-19,120.8997477295657,120.8997477295657,119.3318650395971,120.53422546386719,218600
2023-09-20,121.04403393623863,121.29412697753905,119.81281794618458,119.8801498413086,206200
2023-09-21,119.59158924649155,119.61082378593244,117.53314861088099,117.56200408935547,335700
2023-09-22,117.66781134829976,118.21608745028,117.45619472321509,118.00447082519531,341200
2023-09-25,117.34077819162175,119.39921903192217,116.84059939153208,119.31265258789062,258800
2023-09-26,118.82207240268929,119.4857777443957,118.53351028701881,118.889404296875,547000
2023-09-27,119.31264031088143,119.70701074637915,118.18723262251139,118.81245422363281,362400
2023-09-28,119.13950746199725,120.85166777851079,118.56237584297187,120.68814849853516,219300
2023-09-29,121.66926377216642,121.99630964992629,120.03405639924574,120.27452850341797,330900
2023-10-02,119.783963084746,120.69776148170621,119.26454246027548,120.28414916992188,244100
2023-10-03,119.29341418642701,120.53425129078342,117.82172588596136,118.18724822998047,236300
2023-10-04,118.84133024310002,119.90902709333459,117.6678250679862,119.49541473388672,208200
2023-10-05,119.2356870928497,120.16872002997181,118.11990034706665,119.03369140625,466700
2023-10-06,118.89902522929134,121.86164325055658,118.68740860796868,121.59231567382812,491700
2023-10-09,121.02480932619929,122.37145467778764,120.89976646460336,122.10212707519531,275700
2023-10-10,122.3906880798059,123.70847793865926,121.68851359938441,121.71736907958984,322000
2023-10-11,122.66963958740234,122.83315887160722,121.82318034684748,122.66963958740234,212900
2023-10-12,122.37143953710256,122.54457973715071,120.29375713652479,120.6400375366211,189300
2023-10-13,121.19794575056598,121.84240925638196,120.62081414328858,121.1690902709961,324900
2023-10-16,122.50611121132462,122.57344310797819,121.36146162958764,121.8808822631836,275200
2023-10-17,121.20757421791582,123.44876888768273,121.20757421791582,122.62155151367188,314400
2023-10-18,122.03479307787752,122.8042994522595,121.46727506334268,121.9482192993164,287300
2023-10-19,121.27489954662221,122.61192392718466,120.61119415676508,120.93824005126953,443900
2023-10-20,121.13060925368268,121.65965082113568,117.28305556639171,117.56200408935547,446500
2023-10-23,117.08106243237853,118.46618413837787,116.59049727173269,116.86944580078125,379000
2023-10-24,117.47542865086069,119.05292505320921,117.08105821958665,118.63931274414062,312100
2023-10-25,118.15677276144453,119.4596516517281,117.63561973271062,118.09886932373047,431300
2023-10-26,117.02760662773419,121.01345262337937,117.02760662773419,119.12186431884766,576000
2023-10-27,119.16048296205888,119.51756400540363,116.15903183159877,116.94075775146484,364000
2023-10-30,117.66456388692826,118.05060396077593,116.63191092316939,117.90583801269531,283100
2023-10-31,118.23398596724621,118.60072002279092,117.57771998783277,118.00235748291016,422900
2023-11-01,117.84793391063505,119.12186099293919,117.36538566183647,118.63931274414062,360500
2023-11-02,119.40174500651636,119.9518497393298,118.68757562918539,119.26663208007812,384300
2023-11-03,120.08696643881918,121.57321603943892,120.08696643881918,120.974853515625,278000
2023-11-06,120.89762906096666,121.34157990752995,120.39578214669304,120.82042694091797,173500
2023-11-07,120.27033814314946,120.62741916445184,119.8360402653971,120.2027816772461,205000
2023-11-08,120.5212478211661,121.10995727302534,120.06765865285827,120.75287628173828,175800
2023-11-09,121.30299122840282,121.30299122840282,119.73953212154,120.0483627319336,118600
2023-11-10,119.90359356052024,121.3994961613825,119.5658112399359,121.33193969726562,195600
2023-11-13,121.01346298027089,121.10032550372696,120.02906768075303,120.18347930908203,183100
2023-11-14,121.55391115797988,123.39724915782807,120.936249936579,123.3875961303711,267400
2023-11-15,123.35862549087017,124.30442323282293,122.90502899029596,123.2524642944336,388600
2023-11-16,123.1945916907023,124.13072927781884,122.4128583792355,123.09808349609375,217000
2023-11-17,124.07281379686883,124.57466814111162,123.15597499237893,123.46480560302734,162700
2023-11-20,123.00154326553826,123.19456697914006,122.01714809702534,122.87608337402344,213900
2023-11-21,123.0112053695368,123.82189030028484,122.76027820488832,123.44550323486328,160600
2023-11-22,123.96664452975432,124.69046691672392,122.91469286164748,124.08246612548828,174800
2023-11-24,124.46851389312098,124.46851389312098,123.62888453508685,124.04386901855469,65900
2023-11-27,123.3586396115106,123.82188919108859,122.42249478837549,122.5672607421875,367500
2023-11-28,122.56726027052797,122.57691329757223,121.10996243713889,121.22577667236328,218000
2023-11-29,121.25473635567784,121.98821183407688,120.55986562488955,120.9941635131836,331800
2023-11-30,121.07137144789151,122.69273410973697,120.45371018272209,122.46111297607422,301000
2023-12-01,122.00750584736005,124.05350585054758,122.00750584736005,123.62887573242188,218300
2023-12-04,123.00154595197841,124.38164160429274,122.4610942682931,123.93769073486328,192000
2023-12-05,123.77362656816942,124.19827138588248,121.48634520426313,121.5925064086914,178000
2023-12-06,121.9785653558879,122.85680684420771,121.48636400130093,121.95926666259766,179500
2023-12-07,121.83379146528237,122.6734281493362,121.59251731777178,122.07506561279297,254000
2023-12-08,121.94959163804015,123.04980103471416,121.23542230546796,122.87608337402344,265800
2023-12-11,122.81819302140134,123.22353181848027,121.93029857047753,123.11737060546875,338000
2023-12-12,123.19456695353703,123.62886478672449,122.25842219129277,123.03050231933594,210300
2023-12-13,122.74097102242494,124.48780066384826,122.74097102242494,124.10175323486328,425000
2023-12-14,124.57467068526118,125.47220345317041,122.45145375097674,122.95330810546875,412900
2023-12-15,122.72168474321455,124.09212012074336,121.57321745592215,121.58287048339844,713000
2023-12-18,122.28738762368339,122.76993591705903,121.48635568953519,122.61552429199219,240500
2023-12-19,123.25247352791789,123.65781965517932,121.63111110817805,121.82413482666016,659100
2023-12-20,121.62145477599356,122.5093491306757,121.08100310513626,121.18716430664062,346400
2023-12-21,121.83378081634912,121.83378081634912,120.49229726249135,121.51530456542969,421900
2023-12-22,121.98820682835046,122.60586803857178,121.71798096926643,121.86273956298828,312200
2023-12-26,121.73728030157127,122.44180403483686,121.20647424478882,121.43810272216797,274700
2023-12-27,121.7179801620288,122.05576248364365,120.66602108831127,120.90729522705078,283100
2023-12-28,120.61776308128793,121.40914191198428,120.05800534752414,120.830078125,343600
2023-12-29,120.820430362007,120.98449499602071,119.24731839145845,119.30522918701172,313500
2024-01-02,118.3304763924489,119.76846804211776,118.02164582279315,118.59104919433594,313100
2024-01-03,120.78183530676975,122.8181896264616,118.8516421971549,120.98450469970703,531700
2024-01-04,120.81079207973853,121.52496149850643,119.79743770955358,119.8843002319336,353300
2024-01-05,119.45965144487354,120.02906224611816,118.69722427618132,119.864990234375,423000
2024-01-08,119.7395169074447,120.79147587247215,118.09885587877267,120.0097427368164,352400
2024-01-09,119.39209643843853,120.28963654792885,118.6779270344352,120.27998352050781,250300
2024-01-10,120.11590329259948,121.04239500109803,119.89393523241942,120.82042694091797,279600
2024-01-11,121.0038168129251,122.53832433409154,120.57917928861815,122.41285705566406,323100
2024-01-12,123.4261986038641,123.50340809589281,121.52495720049569,122.01715850830078,231700
2024-01-16,121.48635575334917,122.39354890156476,121.1292747284493,122.38389587402344,257500
2024-01-17,121.54425926799404,122.82783205612957,121.4960014962835,122.26808166503906,336900
2024-01-18,122.87608540424257,125.47218996794025,121.9013358829781,124.63256072998047,444200
2024-01-19,125.18268267158516,126.87160167039863,124.0535067247466,126.23463439941406,418000
2024-01-22,126.33112908123387,127.20937045222468,126.00299979741455,126.61101531982422,266200
2024-01-23,127.19970886950027,127.24796663489413,125.78101597889527,127.2286605834961,217800
2024-01-24,127.50855023197329,127.67261487673112,125.98369593067731,126.21532440185547,294400
2024-01-25,127.42168120715766,127.75947085008025,125.8292779789865,126.66890716552734,332300
2024-01-26,127.0838891387504,127.96213041262492,126.81366332005095,127.10319519042969,219900
2024-01-29,126.47590503677381,127.9621472350077,125.93545332832512,127.63401794433594,187800
2024-01-30,127.42169552655902,128.44469550700896,127.03566279943983,127.63401794433594,228400
2024-01-31,128.14711126677335,128.53435928082044,125.03952535355248,125.73655700683594,537500
2024-02-01,126.29805931683907,126.92731704694036,125.47517018793579,126.33677673339844,298800
2024-02-02,125.81399845204739,126.54007181280666,124.58451009166825,125.94953155517578,344800
2024-02-05,125.01048126027132,127.25646061172087,123.9649337999065,126.48197937011719,319500
2024-02-06,126.31737531789884,127.20802336973593,125.17502719880267,126.94664764404297,369700
2024-02-07,127.21774119888832,128.19551470320488,125.24281332521821,127.59529876708984,393000
2024-02-08,127.4404150760117,130.5383255987766,127.34359937104924,127.90509796142578,620700
2024-02-09,127.89540969408253,134.7689104528772,127.31454506556426,134.52688598632812,650900
2024-02-12,134.72051017566284,135.98871608812559,133.12313974347538,133.21995544433594,491300
2024-02-13,132.3293155563288,132.94889767408426,130.67386150701182,131.5935516357422,275900
2024-02-14,131.91300327103065,133.0747324694231,130.8577801954245,132.79397583007812,335000
2024-02-15,132.7939713432345,133.4135533345092,130.27692596643098,130.73191833496094,471400
2024-02-16,131.05139603090558,133.5974980024858,130.7319219804335,133.1134490966797,453900
2024-02-20,132.76492924425213,135.66922259050702,132.580988302136,135.23358154296875,373000
2024-02-21,134.64307352382625,135.64021329621986,134.5559482478703,135.53372192382812,276300
2024-02-22,135.98871968077944,137.87650772141765,135.6014864111109,136.95681762695312,295700
2024-02-23,137.44086687732337,137.5183164858138,136.1145774154304,136.85032653808594,190300
2024-02-26,136.9858566979064,137.52798917361454,136.30819110327124,137.3924560546875,199200
2024-02-27,137.39242389962342,137.64412398386563,135.3400615013445,135.8337860107422,244600
2024-02-28,135.19485448974754,136.73414124839545,134.88507086916457,135.9306182861328,189600
2024-02-29,136.1435940131674,137.11169178239248,135.36911284338737,135.97901916503906,250600
2024-03-01,135.41752898322991,136.298486780481,135.10773058753682,135.81443786621094,151400
2024-03-04,136.20170952806765,137.58608257287685,136.0758520614475,137.4311981201172,260300
2024-03-05,137.73130314278708,138.64131760349056,137.2182123974122,137.97332763671875,190200
2024-03-06,138.3702046969849,139.05756060105247,137.93456366268825,138.50575256347656,184000
2024-03-07,139.8901458387967,140.5097279007667,139.25119768276474,140.0353546142578,250100
2024-03-08,140.09344450787563,140.44196032011527,138.40894895338388,138.52511596679688,185200
2024-03-11,138.23470289544156,138.80589192553307,137.4505459017938,138.18630981445312,226700
2024-03-12,138.24437886769354,138.29278671562085,136.9664825880185,137.8668212890625,242200
2024-03-13,138.43800441506068,138.43800441506068,136.43403460324666,136.65670776367188,336800
2024-03-14,136.8503413578885,137.10204153373775,135.8822433049244,136.43405151367188,235200
2024-03-15,135.57242007632507,137.86682208776077,135.2820025310812,136.50180053710938,599500
2024-03-18,136.43402821831805,136.79223448171572,134.49783244298447,134.8173065185547,299700
2024-03-19,134.4494497592499,135.84351318877248,134.4494497592499,135.05934143066406,253000
2024-03-20,135.17551943672254,135.6014848917867,134.70114613049162,135.50466918945312,220000
2024-03-21,135.83380611845956,137.08266060945118,134.85603261400937,136.6373291015625,255800
2024-03-22,137.47955153920302,137.90551689840717,136.55018600275653,137.0729522705078,276000
2024-03-25,136.69539997271303,139.45448448167053,136.66635822183974,138.39926147460938,316300
2024-03-26,138.27343080301986,139.7062116207552,138.07012373555634,138.63162231445312,314200
2024-03-27,139.08660656444317,140.5193871456138,139.08660656444317,140.04502868652344,218200
2024-03-28,140.1999296948087,140.71302034415112,139.06724227584522,139.29959106445312,247800
2024-04-01,139.20278768938965,139.20278768938965,137.58606600215256,137.75064086914062,204400
2024-04-02,137.31500593788894,137.31500593788894,135.91126690307195,136.14361572265625,202600
2024-04-03,136.18232831953642,136.6857433581489,135.40784705367142,136.38563537597656,258700
2024-04-04,137.3053243590496,138.1959726377349,136.47275958975655,137.22787475585938,403600
2024-04-05,136.8696707293308,138.20563563898364,136.45338099681578,137.20849609375,288300
2024-04-08,137.15041706598697,137.83777302127123,135.91125303201014,136.0274200439453,312500
2024-04-09,135.94027734869056,136.59859146655273,134.91409614955109,135.8337860107422,242600
2024-04-10,134.54626618216517,135.74671311179145,134.03317538472913,134.95286560058594,200700
2024-04-11,134.8173252418579,135.5724405173476,134.03316820746505,134.6914825439453,265300
2024-04-12,133.76208470665995,134.51719988484666,131.62259662579817,132.82302856445312,299200
2024-04-15,134.1880154996667,135.34972972217028,133.43290051643947,133.7910919189453,319600
2024-04-16,133.39420463004214,134.94316719612974,132.97792961895718,134.16868591308594,281700
2024-04-17,134.44945414271976,135.03030407595662,133.93636338762582,133.98475646972656,565400
2024-04-18,133.9750266497495,134.9915320870065,133.8104518299265,134.67205810546875,246600
2024-04-19,134.62367866886507,135.4562433737092,134.34293680453402,134.89474487304688,276600
2024-04-22,135.09805115725143,136.64699877649178,134.80761886239384,135.84349060058594,298800
2024-04-23,135.31102694214403,136.656682226633,135.069002504128,135.67889404296875,417200
2024-04-24,135.88281662716403,136.80520507967753,135.5818281146395,135.94107055664062,559200
2024-04-25,135.7760094089554,137.14503597865468,134.8827479436081,136.1061248779297,694400
2024-04-26,137.87326188150567,144.19406594832364,137.77616210897216,139.16461181640625,489500
2024-04-29,140.68894676515575,143.71828418532212,140.17435067690909,142.12594604492188,676700
2024-04-30,141.50454336149315,141.85408171786466,139.8733594266455,140.18406677246094,585100
2024-05-01,140.7763334778744,142.93181744453807,140.37824526435972,141.15499877929688,359600
2024-05-02,141.52395235638076,142.46576363326017,141.06761019890962,141.67930603027344,356500
2024-05-03,142.83475678977553,142.8541797071833,140.63072234736188,142.54347229003906,303300
2024-05-06,143.46583362092616,144.74747925029178,142.88327954740367,144.70863342285156,260200
2024-05-07,144.00957355262796,146.00970404941293,144.00957355262796,145.36888122558594,392900
2024-05-08,145.36889477978409,146.48546798558442,145.13586423611673,146.4077911376953,223500
2024-05-09,146.61171295258077,147.3204939066375,144.31059345708334,144.7475128173828,299100
2024-05-10,144.62129078469124,144.6698406741612,143.78628305798492,144.17466735839844,186300
2024-05-13,144.21345462568132,145.1358429843686,142.59198955369928,143.5726318359375,167500
2024-05-14,143.99014505242278,143.99984910137368,143.18426452924012,143.6017608642578,137600
2024-05-15,143.66003210063693,144.02897856662815,142.5046131956969,142.99978637695312,211100
2024-05-16,143.0871700529018,143.60176615776547,142.17448569624776,143.25222778320312,235500
2024-05-17,143.55319451917012,143.86388698665002,142.85411794816702,143.37841796875,169500
2024-05-20,143.30077614301211,144.09695263816212,142.7667571298435,143.86392211914062,163400
2024-05-21,143.64063969473372,144.3591246810753,142.8153360686792,144.27174377441406,280400
2024-05-22,143.7668346921676,144.50474243328088,143.18426581237048,144.4658966064453,283300
2024-05-23,144.3396862943476,144.62125187296155,143.27164827475897,143.427001953125,171700
2024-05-24,144.16492024192416,144.50475458627656,143.0774740445457,143.7862548828125,162300
2024-05-28,143.32990795502417,143.48526163962768,141.58223085693479,142.4463653564453,318400
2024-05-29,141.41714913451602,142.43663725250155,140.3102801303625,140.6306915283203,229700
2024-05-30,140.91227152936236,142.7084983843772,140.78604481723752,141.89291381835938,328100
2024-05-31,141.8443808876884,143.5338189608347,141.6793231449918,143.39788818359375,358900
2024-06-03,144.18434827896806,144.18434827896806,142.0288639073479,143.85423278808594,266200
2024-06-04,143.35906199446953,144.07756180995295,142.4366733928615,143.8833770751953,287900
2024-06-05,143.42700061426063,143.89304682966602,142.80560072193944,143.62118530273438,229200
2024-06-06,143.7085664873753,143.7085664873753,141.17441703689698,141.71815490722656,197600
2024-06-07,141.53367596430135,142.07739902580767,141.22296860610217,141.320068359375,179100
2024-06-10,140.62097903208888,141.5724943045568,139.80539451283065,141.35888671875,125800
2024-06-11,140.69869527654703,141.504575973223,140.15497211140303,141.27154541015625,147700
2024-06-12,141.9900071614803,142.0579651312444,139.88307305333473,141.5919189453125,221300
2024-06-13,141.65017286663635,142.27157271965928,140.8054613767583,141.5919189453125,232400
2024-06-14,140.87341987566188,141.15500025023965,139.5043934580447,140.54330444335938,141500
2024-06-17,140.65981624752195,142.4172120684738,140.3685466316063,142.077392578125,303800
2024-06-18,142.2230221202467,143.39786385052693,142.213318071856,142.4269256591797,219900
2024-06-20,142.39782858641786,143.24254024927657,141.43659424170872,141.57252502441406,199900
2024-06-21,141.6307756362361,142.8638715174382,141.0870525181657,142.58230590820312,444100
2024-06-24,142.94150847943163,143.9221506283652,142.40748956057092,142.45603942871094,182900
2024-06-25,142.52403514640127,142.53375401180762,140.30059282386082,140.65013122558594,194500
2024-06-26,140.05785425717647,140.5821544372045,138.80535032884424,139.53355407714844,192400
2024-06-27,139.6888885498047,139.69860741462887,138.135396158235,139.6888885498047,377300
2024-06-28,139.60150714084187,140.12582211775148,136.01874245488284,136.7178192138672,435100
2024-07-01,137.2712545772139,137.36833951304502,134.36814387510577,134.51377868652344,306400
2024-07-02,134.45551784033776,136.41681715340104,133.7564411508368,136.31971740722656,259400
2024-07-03,136.78579030057608,137.2906675416146,136.4848018027494,137.11590576171875,143300
2024-07-05,136.89258674062816,137.32950598220694,135.66919508579755,136.80519104003906,207000
2024-07-08,137.53340696834337,138.35871046567937,137.38777214662196,137.39747619628906,249300
2024-07-09,136.76637614080624,137.1644644187289,135.6886339831031,135.97019958496094,238400
2024-07-10,136.65956823532298,137.51399869592782,136.48480644947725,137.18386840820312,142000
2024-07-11,137.09648258623827,139.13545890652216,136.65956332198957,137.9606170654297,244500
2024-07-12,139.24225471520856,141.26180800557879,139.24225471520856,140.38795471191406,263900
2024-07-15,140.5530072875592,141.4559875097571,138.98009215801966,139.26165771484375,319900
2024-07-16,139.66949821673376,141.07735596844665,139.66949821673376,140.35885620117188,178800
2024-07-17,140.14523913079555,141.5336886876332,140.14523913079555,140.65013122558594,242300
2024-07-18,140.40738917518402,142.97066571318356,140.3976851256369,142.0288543701172,434200
2024-07-19,142.32983440463798,142.32983440463798,140.45593069491323,141.69873046875,251200
2024-07-22,141.747306657231,143.27167228757753,141.02880688587183,142.9124298095703,235700
2024-07-23,143.572641002004,144.19404091845544,141.43657971516106,141.7958221435547,234500
2024-07-24,141.82495301591825,142.3686760490821,139.71800403939616,139.95103454589844,250600
2024-07-25,139.1134168154453,140.30167233708127,137.54531009340042,137.80828857421875,558100
2024-07-26,139.40565032341584,147.353309452805,138.64594772179586,142.8437957763672,562800
2024-07-29,142.76584597383152,144.4897929937424,141.39253199421196,143.9541015625,390900
2024-07-30,143.54504923709058,144.05150768530154,141.62630915801532,141.95745849609375,411000
2024-07-31,142.687920277237,144.9767768202367,141.62628675803276,143.15542602539062,280600
2024-08-01,143.05804117385702,145.64881403519908,141.64575972559882,143.20413208007812,335300
2024-08-02,142.76584278576115,143.17491218000953,140.00948044813856,141.8990020751953,213500
2024-08-05,139.69782130454826,139.69782130454826,135.85060666321178,137.01937866210938,448500
2024-08-06,137.65245225788104,142.28858689391723,137.4381756914255,141.1587677001953,476000
2024-08-07,142.21068163315522,143.42815549610452,139.7367812828085,139.8634033203125,353600
2024-08-08,140.70103177550166,142.35679332552462,140.70103177550166,141.77239990234375,268600
2024-08-09,141.62628524099554,141.62628524099554,139.73676366603377,140.2042694091797,263200
2024-08-12,140.22377593602033,140.42830322987103,139.05500395736158,139.56146240234375,221100
2024-08-13,139.7757349256636,141.51916583268488,139.37641479063032,140.6133575439453,212000
2024-08-14,140.37961977723546,141.04191846622177,139.7562737151191,140.1555938720703,115700
2024-08-15,141.22696922822865,143.50607675102486,141.22696922822865,143.18466186523438,277500
2024-08-16,142.30806341467064,143.01906387906809,141.8210739450238,142.90219116210938,250600
2024-08-19,142.51262572122243,143.88592492526362,142.12302517326572,143.1457061767578,191200
2024-08-20,143.15544136166255,144.45083532458932,143.15544136166255,144.25604248046875,387200
2024-08-21,144.3144557805946,145.67803519496948,143.62293906523604,145.44427490234375,267300
2024-08-22,145.67803823477166,146.48642768244193,144.80144826543804,145.11312866210938,200400
2024-08-23,145.7657034384913,146.6130604286141,145.5514268655365,146.52540588378906,221400
2024-08-26,146.75915922191393,148.6973829226023,146.23321706296485,146.25270080566406,235500
2024-08-27,146.10658758715397,147.59677430031587,145.94101293699603,147.265625,208300
2024-08-28,147.00262825791697,148.01557463659083,147.00262825791697,147.5967559814453,249000
2024-08-29,148.5805139173331,148.93114698600922,147.27538549682706,148.31753540039062,187100
2024-08-30,148.23959762370004,149.4473369078232,147.69417177336692,149.20384216308594,178500
2024-09-03,148.15194689459446,148.41492538696468,145.83387210929124,146.13580322265625,362400
2024-09-04,145.7072750829975,146.97343598691867,145.7072750829975,146.807861328125,175800
2024-09-05,147.1487745746559,147.81107327566363,146.04817335838652,146.7981414794922,200600
2024-09-06,146.4669892113799,149.1356825686532,146.4669892113799,148.41494750976562,319100
2024-09-09,148.59998302653705,149.0772232245831,147.49938200179562,147.9571533203125,241500
2024-09-10,147.91819898327566,148.81425795867298,147.49939511007815,147.56756591796875,158100
2024-09-11,146.86627610856456,146.9539455070627,144.762492917651,146.91497802734375,178000
2024-09-12,146.96369468322857,148.05454643692235,146.06763576244578,148.005859375,200400
2024-09-13,148.229880848657,149.02853597846607,147.94741858852652,148.31753540039062,138600
2024-09-16,149.0577507849576,149.18437282019818,148.11300475699895,149.00906372070312,182900
2024-09-17,149.9927649627968,151.5219191158579,147.9181849513857,149.04800415039062,259900
2024-09-18,149.75902346233676,151.44401803275537,148.73635728036453,149.0869903564453,214200
2024-09-19,150.98623601631084,154.677610065008,150.98623601631084,152.8173065185547,412400
2024-09-20,152.2426587848195,152.2426587848195,150.4602753884125,151.8530731201172,663300
2024-09-23,152.1063064527266,152.82705629994214,150.71352354488388,151.9017791748047,315800
2024-09-24,152.1160493204721,152.99263943106746,151.96995839957702,152.55435180664062,246200
2024-09-25,153.2069113857245,153.76207173006424,151.81411358113382,153.0510711669922,284100
2024-09-26,153.83025116800434,154.92110293146314,153.59649084937433,154.25880432128906,371600
2024-09-27,154.5509862737545,157.34631621260434,154.14191686210978,155.72950744628906,354300
2024-09-30,155.14510798319304,156.24570900619995,154.7944749495995,156.02169799804688,289800
2024-10-01,156.36259442762125,156.36259442762125,154.9113751149142,155.80743408203125,192200
2024-10-02,155.70030382673775,155.9437986084722,153.84974943025287,154.6191864013672,186900
2024-10-03,153.87896779578838,156.28469743108852,152.56409002818182,154.8042449951172,367000
2024-10-04,155.77820432469008,157.26839101232096,155.18407653760102,156.40155029296875,350500
2024-10-07,155.2425276346262,155.48602240881075,153.89843172537022,154.5607452392578,223300
2024-10-08,154.16139329533596,154.8821430979149,153.01210522116568,154.54124450683594,205900
2024-10-09,154.22958607287964,155.8853474593437,154.00556019446944,155.54444885253906,152600
2024-10-10,153.93739633476548,155.23279029262568,153.93739633476548,155.0769500732422,168500
2024-10-11,156.75220088173344,157.70669625153667,156.1775567716702,157.34632873535156,194400
2024-10-14,160.696818031185,163.39472945404907,159.2066311881111,162.83956909179688,469700
2024-10-15,162.96615916864047,165.2452662626044,162.1577548858949,164.29075622558594,397300
2024-10-16,164.31027038182938,164.79725992941144,161.60260968621262,161.719482421875,330000
2024-10-17,162.63500734074424,163.94015048027507,162.18698532860228,163.52133178710938,238200
2024-10-18,164.69986730082573,164.69986730082573,163.414207789957,164.24209594726562,171500
2024-10-21,164.0862369925915,164.10572073312753,161.9727044274876,162.00192260742188,217900
2024-10-22,161.40781358966652,162.0408940440798,160.52148906409494,161.49546813964844,228500
2024-10-23,162.1772317157538,163.60898197974547,161.8363479958803,163.28756713867188,318100
2024-10-24,164.38138841449273,164.3911490539813,162.26215240803288,162.65280151367188,547300
2024-10-25,164.96734120598276,165.87558734575057,160.75819577884172,164.95758056640625,518900
2024-10-28,165.92439581087592,167.3990718969887,164.81107199246878,165.14312744140625,350000
2024-10-29,165.0747671080742,165.52400985615543,163.71729312603756,164.7524871826172,338100
2024-10-30,164.41068693257148,166.2173887714383,164.18605810635694,165.07476806640625,290300
2024-10-31,165.13338430997027,166.2955413549906,163.93216979950657,163.9810028076172,329900
2024-11-01,164.16654807832185,166.98892289403057,163.69776911458624,165.44589233398438,316300
2024-11-04,165.66072177477935,166.5787284860389,164.24463934900223,164.32276916503906,191800
2024-11-05,163.8149435034101,166.37363158046975,163.8149435034101,166.32479858398438,206200
2024-11-06,171.05154898002016,171.05154898002016,168.1119872286225,169.10812377929688,264100
2024-11-07,170.12378096512896,171.35430696476374,169.47922114643825,170.62185668945312,412300
2024-11-08,170.61209897781401,173.6786238548333,170.40702122427004,171.6472930908203,309200
2024-11-11,172.19417237187216,173.86415054303177,171.7839871315732,172.02813720703125,189100
2024-11-12,172.5164361229937,173.09264162227078,170.85621860211134,171.5886688232422,179800
2024-11-13,171.39337158203125,172.26254534897026,170.95390437883552,171.39337158203125,168400
2024-11-14,171.05155682058597,171.67658049046,169.8405818424337,170.02613830566406,198200
2024-11-15,168.92257425336157,169.69408202115162,162.28168847937133,162.59420776367188,620500
2024-11-18,162.49655239968402,163.8930988274997,160.4847578059515,162.78953552246094,384400
2024-11-19,162.52584959099735,163.74660018722383,162.31099629392224,162.99461364746094,287600
2024-11-20,163.0922846123704,164.98689197957114,161.77386796768175,164.78179931640625,221800
2024-11-21,164.74271987680694,166.24667789967594,163.81495249958823,165.90487670898438,205100
2024-11-22,166.1978542572136,168.04364337816776,166.1978542572136,167.49673461914062,241600
2024-11-25,168.02409483029683,169.94799873062775,167.7213511031337,168.46356201171875,270100
2024-11-26,168.81516282359394,168.81516282359394,167.15494495593342,168.01434326171875,140300
2024-11-27,168.62958510670097,169.81127811822287,167.50650063518984,167.71157836914062,167200
2024-11-29,168.55145899910121,169.43040829774364,168.06315880043525,168.91281127929688,117300
2024-12-02,168.9323215272417,169.0592843391612,166.8423974094864,168.71746826171875,170900
2024-12-03,169.39132382716835,169.39132382716835,167.0865464581629,168.3658905029297,160100
2024-12-04,167.86785056164098,168.84445101051938,167.02797357953594,168.5514678955078,173400
2024-12-05,167.98502374389864,168.40496965056505,166.5396593733903,167.09632873535156,245000
2024-12-06,167.58463897320985,168.61005749857284,166.85218865409922,167.14515686035156,209200
2024-12-09,167.54556559711838,169.4108759749143,166.24668525088177,166.7935791015625,301700
2024-12-10,166.72521015388972,167.3599944100707,164.25441250187913,166.9107666015625,287000
2024-12-11,167.85808411107303,170.02613822467129,167.73112128855698,168.27801513671875,418600
2024-12-12,167.65298456324717,168.5612306607672,166.78381082569527,167.62368774414062,178300
2024-12-13,166.9107848371899,166.99867530040407,165.8462939336225,166.21739196777344,153200
2024-12-16,166.15878101655767,166.93028872730167,163.66844717273165,163.70751953125,236100
2024-12-17,162.99458751218418,163.00436305250057,159.02959259568405,159.27374267578125,511900
2024-12-18,159.85974721501572,160.57266144760123,154.21499719986286,154.5079803466797,468600
2024-12-19,154.8009500563107,157.78936030002515,154.52750309049244,155.15252685546875,404700
2024-12-20,155.00602554523715,156.04121964416362,153.78527497542004,154.47865295410156,730200
2024-12-23,153.49229809203675,155.1818127767919,153.28722033295332,154.8107147216797,194900
2024-12-24,155.0646226890186,155.68964639880573,154.2247456819539,155.6212921142578,100500
2024-12-26,154.7130496409685,155.89474280440862,154.7130496409685,155.13299560546875,164500
2024-12-27,154.12707581536193,155.84588708263334,153.92198318319998,154.4493408203125,145000
2024-12-30,153.3262778591197,153.80481746674624,151.37307686728377,153.06259155273438,221700
2024-12-31,153.59971586271843,154.54701948074276,152.52544941905987,153.42393493652344,317100
2025-01-02,153.96104492700826,154.4102876614351,149.8593262852289,150.55271911621094,239400
2025-01-03,150.43550041969115,152.07619663730705,149.29287988147502,151.86134338378906,250700
2025-01-06,150.39648145810642,151.02150520056398,147.89638648827628,149.3417510986328,369000
2025-01-07,152.2715539340709,152.40827741317517,149.02924790028047,149.83981323242188,361200
2025-01-08,149.31245742221395,150.65039540651844,148.53117400223823,150.54296875,228600
2025-01-10,149.14643028639964,150.68946087220502,149.00970681179618,149.85934448242188,350800
2025-01-13,149.351489060231,151.08007590647148,149.351489060231,150.28903198242188,349300
2025-01-14,151.18750459843608,151.81252825447513,149.8886242863141,150.9921875,196900
2025-01-15,152.46686153360938,153.2481448947014,150.56249358589434,151.9199676513672,206100
2025-01-16,152.24223989964935,153.49228725350105,151.67580986403843,152.7500762939453,346300
2025-01-17,153.29697420180517,154.25403847264764,152.03715127326387,152.43756103515625,231900
2025-01-21,153.0528143054371,156.50997312910235,153.0528143054371,156.0900421142578,270900
2025-01-22,155.61149546068765,156.98850552412839,154.63489511528093,155.3478240966797,280000
2025-01-23,154.7521036088612,156.070505187951,154.03917459835165,155.88494873046875,149800
2025-01-24,155.91424200320077,156.71506145375167,153.54111027377883,154.59584045410156,329600
2025-01-27,154.54699783386062,155.20131824817142,152.98443138953712,154.75209045410156,317000
2025-01-28,153.8829569391678,156.5979052958385,153.8829569391678,154.7130584716797,204300
2025-01-29,155.0646061385479,155.10367849846844,152.95514575501196,153.43368530273438,265800
2025-01-30,154.1270963205914,154.96695843542625,152.9161063496536,154.42984008789062,274200
2025-01-31,154.205198107046,155.66033807623802,153.0918742405619,153.47274780273438,834100
2025-02-03,150.96288932286944,153.0821103704106,150.53318276913035,152.3301239013672,364600
2025-02-04,152.4375754807049,154.75212890535818,152.4375754807049,154.00990295410156,302400
2025-02-05,155.01866189479728,156.3702319730873,154.52896432375118,155.05784606933594,262600
2025-02-06,156.54649741836073,156.54649741836073,152.16860045521503,153.22634887695312,446600
2025-02-07,154.37226642227148,154.64649588233073,139.11328743464438,140.22979736328125,1221500
2025-02-10,141.28754664505917,141.6205523719065,137.99677816426612,140.32774353027344,621900
2025-02-11,139.33854663703144,140.1220657147679,137.3699528993658,139.35812377929688,377300
2025-02-12,138.0653040663673,140.53338346704172,137.04672497334838,138.78025817871094,423500
2025-02-13,139.80863972660936,140.81741540614397,138.54522672072014,139.82823181152344,665900
2025-02-14,140.72929960574803,142.31591505799216,139.7792850599418,141.80662536621094,512800
2025-02-18,141.806629148029,144.25511722944964,140.93496798881864,143.87315368652344,489600
2025-02-19,143.12880426353559,144.45099367199094,142.6097260381441,144.01025390625,331000
2025-02-20,143.94171731007287,144.38244217212826,142.91334933568692,143.65768432617188,283100
2025-02-21,144.00046152927248,144.35304436591701,142.20816668836144,143.32467651367188,451900
2025-02-24,143.16798872554835,144.2551180375646,141.38549716336897,142.6097412109375,353300
2025-02-25,142.87414821729212,145.27366299244076,142.71744142972454,144.66644287109375,336700
2025-02-26,143.62828832707837,146.10615678438293,143.59890766903789,143.61849975585938,735600
2025-02-27,143.21696167310282,144.1473841616562,142.36489259702773,142.62933349609375,262800
2025-02-28,143.14840249829248,143.92211811173567,141.64992907469428,143.7262420654297,348700
2025-03-03,143.94169395000412,145.7731579400057,142.68806946190705,143.56951904296875,394100
2025-03-04,142.54115535917794,144.90150112160728,142.14940329945776,142.93292236328125,490100
2025-03-05,143.0406700510276,145.78297956351986,143.0406700510276,145.3814239501953,445100
2025-03-06,144.51952840338762,148.37834721716624,144.02983088781943,148.03555297851562,471700
2025-03-07,147.40875736971992,150.20003950079644,146.10616003817648,149.63198852539062,480200
2025-03-10,148.93662196596816,150.82684736023063,147.14432711634848,147.467529296875,391100
2025-03-11,147.24225796213827,147.45772608292995,144.23552273099082,144.84274291992188,304000
2025-03-12,145.18554224213253,145.18554224213253,142.56075547219578,143.0210723876953,299700
2025-03-13,143.39324790721705,144.16696350239528,140.79784178568258,141.77723693847656,238400
2025-03-14,142.23754924682325,143.86334873443155,141.5617642221919,143.63809204101562,223600
2025-03-17,143.49118010431383,144.95048427871978,142.854579225438,144.7937774658203,225200
2025-03-18,144.35304428256728,144.49015899982857,142.7762175618708,143.28550720214844,219900
2025-03-19,143.32466483055046,144.42159742424096,142.47259593827573,143.95147705078125,279600
2025-03-20,143.1190209381293,144.38243413158088,140.76846356409283,142.2081756591797,332800
2025-03-21,141.03288741960213,142.46281077035695,139.4266801328764,141.83599853515625,601900
2025-03-24,142.74685366750688,145.12677688467917,141.9241652673277,144.94070434570312,463800
2025-03-25,145.43038233248038,146.15512513486658,142.9231183481365,144.1767578125,325200
2025-03-26,144.02005068183723,145.63604659931275,143.28550436582418,145.49893188476562,630400
2025-03-27,145.22471455574868,146.80154137661276,144.0004705937233,146.27267456054688,312700
2025-03-28,146.21390008176047,146.90927723620769,142.75663628635246,143.90252685546875,239800
2025-03-31,143.5597480313838,146.01802456611082,143.08964252694352,145.32266235351562,372500
2025-04-01,145.8123638891414,146.93866240475776,144.3432710717018,146.02783203125,240000
2025-04-02,144.95049129591143,148.01600308998087,144.95049129591143,147.42835998535156,247600
2025-04-03,143.73602588355362,146.9582442746014,143.44221929600363,145.60667419433594,352900
2025-04-04,142.22775504246812,144.91130294785953,137.1544807452422,137.29159545898438,531600
2025-04-07,133.5306985896499,139.1915999801272,128.15383009223805,131.87551879882812,629900
2025-04-08,134.5493112573588,136.43953673434598,128.57499483049722,130.9059600830078,473800
2025-04-09,130.43584131939255,141.44424838924863,128.6141806532637,140.78805541992188,491800
2025-04-10,137.11532993446937,140.4158870228316,134.7354067381973,137.8596649169922,309000
2025-04-11,137.967394489513,141.72828334567205,136.8606880961678,141.14064025878906,203000
2025-04-14,142.79581425798335,143.38344237476502,140.82722046414764,142.7860107421875,249300
2025-04-15,143.08963340422312,143.5205547049289,140.80764097500608,140.97413635253906,250700
2025-04-16,141.09164958012386,142.8153944455794,139.63236050898016,142.0122833251953,307700
2025-04-17,142.40403652449308,142.7566193457953,137.81068622127157,140.86639404296875,390600
2025-04-21,140.347331860725,141.08187824351555,138.19266546008294,139.6421661376953,291600
2025-04-22,141.52260661323547,143.79481065396374,140.63135339324026,143.01129150390625,217800
2025-04-23,144.82313655046048,146.24327128227202,144.18653576642095,144.9994354248047,537000
2025-04-24,144.88192409202932,148.86806971088194,142.4628317080614,148.33920288085938,424500
2025-04-25,147.74175781185858,149.84745131334506,144.52934305768525,145.98863220214844,220500
2025-04-28,146.71339348881767,147.91804531450325,145.22470870652703,146.61544799804688,235200
2025-04-29,146.67422793492148,148.84848659547686,145.93968149404157,147.20310974121094,359900
2025-04-30,145.99841784242776,146.8994594368768,144.17674256936857,146.8602752685547,556200
2025-05-01,145.82884652255714,147.87212219802424,144.3651647328934,145.66184997558594,445300
2025-05-02,150.2886872456017,150.29850528114721,145.18049076089244,149.316162109375,431600
2025-05-05,148.7562082163406,150.51461075676426,148.21593150363898,148.80532836914062,267600
2025-05-06,147.59703523807684,149.35542260665764,146.78168875218103,148.2552032470703,312000
2025-05-07,149.1982877610097,150.44585281383766,147.96052575449374,148.71693420410156,318400
2025-05-08,149.1098443499113,151.84077180787722,148.5695676661293,150.65213012695312,302500
2025-05-09,151.1924328459138,151.5755460622504,150.23955882257493,150.61285400390625,231600
2025-05-12,153.0392239180569,153.82510139061208,150.98613045039815,152.7740020751953,352500
2025-05-13,153.55003919391905,153.55003919391905,150.49495171985274,150.92718505859375,339400
2025-05-14,150.90754450151144,150.90754450151144,148.3043412429943,149.7876739501953,350100
2025-05-15,149.65998239804614,152.7347062134107,149.65998239804614,152.2140655517578,278100
2025-05-16,152.4399964689241,154.3752135929202,151.86041763202704,154.23768615722656,278600
2025-05-19,153.5991717253283,155.5442069170815,153.5500515711728,155.28880310058594,185400
2025-05-20,157.43029958325823,157.43029958325823,155.12180229520027,155.73085021972656,388100
2025-05-21,154.09032526701444,154.86636965019244,153.07851316508325,153.68756103515625,319800
2025-05-22,153.5991755437167,154.4832783830283,152.81329802579143,153.88404846191406,278900
2025-05-23,152.3810559407016,153.4223372220158,151.53624028030902,153.18658447265625,260500
2025-05-27,154.25734853178614,155.64245601461047,153.92335544765425,155.36740112304688,352800
2025-05-28,155.36739421063615,156.03538034918074,154.4832763933447,154.6208038330078,364400
2025-05-29,155.04320652313712,155.8683710937722,154.05104543149486,155.5343780517578,232100
2025-05-30,155.44597065814978,155.9764293133438,153.77597547059216,155.60313415527344,335100
2025-06-02,154.75831599595244,156.26131463804512,152.51857506289332,154.1394500732422,349600
2025-06-03,153.4223415376803,154.66010346409962,153.24552697068694,153.5009307861328,397800
2025-06-04,153.72687442684654,153.7563435201819,147.63633532186296,147.7542266845703,831900
2025-06-05,148.90356481639972,150.6324832288513,146.41823804065308,149.79750061035156,482400
2025-06-06,151.64429332994897,151.75235166609104,149.52244371290558,150.60301208496094,264700
2025-06-09,150.0136191980335,150.4753066580511,148.6874500367206,148.9232177734375,388400
2025-06-10,149.47332984142486,150.2984944487939,148.19628081228734,149.8367919921875,323500
2025-06-11,150.29851181607012,150.87809071516745,148.9232373115395,149.23757934570312,380800
2025-06-12,148.7365582104655,151.88987086726192,148.7365582104655,151.62464904785156,337200
2025-06-13,150.2985051515068,151.00579343372206,148.06858195648448,148.49099731445312,361200
2025-06-16,148.5695758002576,150.20025395390124,148.4516844355203,149.01162719726562,346200
2025-06-17,147.9998296074305,148.58922653181065,146.49684571567806,146.81118774414062,379700
2025-06-18,146.48700188455078,148.06857491409224,146.48700188455078,147.0567626953125,383200
2025-06-20,147.63634617447357,148.10788168123327,146.35931206442524,147.64617919921875,570500
2025-06-23,146.85049066616682,151.22191491728302,146.85049066616682,151.07455444335938,356500
2025-06-24,151.84077408220156,151.84077408220156,150.47530283808342,151.1531219482422,246600
2025-06-25,151.14331042765082,151.80147850793904,150.0725600428252,151.21206665039062,264700
2025-06-26,151.80147000378724,152.83293320202972,150.41636270870066,151.75234985351562,658200
2025-06-27,151.9292038692901,153.35359852041546,151.50678849615022,153.0687255859375,643100
2025-06-30,153.27499173184543,153.73669418509692,151.8800663373244,153.6679229736328,315500
2025-07-01,153.66791520781175,156.97842145950187,153.20622776725833,156.20236206054688,338300
2025-07-02,156.2122087454969,157.69554147577566,155.84873159459067,157.4892578125,293500
2025-07-03,157.76431481113727,158.51089020387988,156.99808835850575,158.196533203125,235100
2025-07-07,158.1081326731942,159.50305819756994,157.71520139482857,158.1179656982422,313900
2025-07-08,158.05901225349746,159.7093565965001,157.02756390215916,157.22402954101562,342700
2025-07-09,157.10611832400417,157.18470756749457,155.30844371561136,156.90965270996094,252800
2025-07-10,156.37919368056006,157.52853325880866,155.5343780517578,155.5343780517578,361600
2025-07-11,155.7603190354981,155.7603190354981,153.86440405350666,155.11196899414062,292000
2025-07-14,154.3654022940558,156.13362296539574,153.92335087356255,154.77798461914062,276600
2025-07-15,154.95479334988428,155.21019713887813,151.34959626569866,151.43800354003906,254200
2025-07-16,151.2022489800424,152.8624112264187,150.83878682765217,152.2435302734375,261900
2025-07-17,152.00776275022704,153.64827377805926,151.78181306560424,153.2749786376953,397700
2025-07-18,154.08053795548372,154.43418210944483,152.18460777221878,153.61883544921875,243100
2025-07-21,153.65810471165034,153.9036904847458,152.49894705753542,152.70523071289062,205900
2025-07-22,153.35357548550758,156.54619042612177,152.48910879729814,156.3595428466797,449900
2025-07-23,157.24366585052525,158.99223535423732,156.3300789809644,158.8055877685547,450500
2025-07-24,158.559320268112,161.82979531304568,157.40675735764995,159.406494140625,431900
2025-07-25,159.63303970514875,160.65752157131263,158.38197744884806,158.58885192871094,296300
2025-07-28,158.79572064833397,159.5640858506177,155.80106845369062,156.3330078125,308500
2025-07-29,156.67779828906407,157.21959813532774,154.8750906357904,156.45123291015625,388200
2025-07-30,156.4315385130725,156.55958937255576,152.60940298667225,154.45150756835938,580700
2025-07-31,153.456563501654,155.0031544025075,152.86550639902828,154.79627990722656,679700
2025-08-01,154.6288158726098,155.76165777291718,138.9856590147076,139.24179077148438,1012300
2025-08-04,140.98538123418317,140.98538123418317,135.03547356824112,137.05490112304688,839000
2025-08-05,137.2617519084508,138.9659599251385,135.63636753338238,138.12863159179688,540800
2025-08-06,138.21729882019278,138.6605841437307,135.49846914211423,136.47369384765625,515300
2025-08-07,137.71491162131494,139.37970798596095,136.83818640949156,138.39462280273438,564000
2025-08-08,138.59163887027924,139.93135534040795,138.48327889728324,138.65074157714844,428700
2025-08-11,139.222090228796,139.5077583171329,137.12385398637957,137.7838592529297,349500
2025-08-12,138.12862654943748,138.98564573069308,137.15338694127408,137.399658203125,286100
2025-08-13,137.60654859738395,139.33044762978915,137.17310872138614,139.32058715820312,729900
2025-08-14,138.09908585404855,138.09908585404855,134.405016641309,136.27667236328125,875800
2025-08-15,136.29640019144338,136.87759690021682,135.8137029921251,136.65103149414062,770500
2025-08-18,136.81847442171076,137.4883401327873,135.3014499206359,135.83338928222656,529500
2025-08-19,136.20773671589527,138.4241784468644,136.20773671589527,137.50804138183594,333100
2025-08-20,137.8232781418471,139.14328874260568,137.18296372359896,139.07432556152344,519200
2025-08-21,138.53254347475354,139.78359091939785,138.14836082862038,138.54238891601562,270400
2025-08-22,139.15312448451428,141.19225798353852,139.08417633944555,139.32058715820312,356500
2025-08-25,138.8674588166062,139.4979127296023,136.88744301904194,137.47848510742188,245800
2025-08-26,136.9957973337368,138.06953652648775,135.95159446141804,137.62625122070312,442900
2025-08-27,137.01548945470773,138.47342629437426,136.95638675089546,137.3602752685547,729100
2025-08-28,138.07938928608468,138.07938928608468,135.35069910089788,136.8184814453125,320800
2025-08-29,137.09431078109077,137.78386744151146,136.28654870208595,137.1928253173828,370700
2025-09-02,135.37041901487592,136.46386429017952,134.13906239994887,134.37548828125,310600
2025-09-03,134.0503903916783,134.1488898889654,132.43485133034417,133.20321655273438,382300
2025-09-04,134.3163671782823,136.41458834161003,133.0258929963137,136.3948974609375,401800
2025-09-05,136.94654859153968,138.7197049562119,135.5772807659998,136.55250549316406,440800
2025-09-08,136.52295752982062,137.91193130257207,135.62652636886406,136.23728942871094,616100
2025-09-09,136.1978803964661,137.39968559639797,133.08502244977814,135.0059356689453,637100
2025-09-10,134.09965957050477,135.40982475360394,132.83875165602893,134.21786499023438,685100
2025-09-11,134.71040519706986,136.2175843964125,133.84352538471833,135.05519104003906,477500
2025-09-12,134.58232620679007,135.00592063066784,133.20321303157323,133.2130584716797,261300
2025-09-15,133.9420357302436,134.13904976383114,132.62202517087903,132.8387451171875,298000
2025-09-16,132.77962562814162,133.40023410540573,132.0999294759084,133.19337463378906,474800
2025-09-17,133.40021279614652,135.0256121123868,132.18856241946168,132.64169311523438,377400
2025-09-18,132.88798558145595,133.48888814617573,132.07037810452255,132.49395751953125,254800
2025-09-19,132.65158018177598,133.0850200863436,131.35126046807318,132.4348602294922,877200
2025-09-22,132.11962230163485,132.92739938115005,130.691251766929,130.74050903320312,402100
2025-09-23,131.0261738005905,131.95215627068484,130.00169183165633,130.0509490966797,319700
2025-09-24,130.03125417731107,131.3217134615017,129.38109429893456,129.53871154785156,353300
2025-09-25,129.53870141670419,130.54349251095573,128.32705085173455,128.8688507080078,388700
2025-09-26,129.37123644965243,130.4548211118124,129.00675974879576,130.31690979003906,274400
2025-09-29,130.42527680922657,130.7010994676822,129.4007947965638,130.29722595214844,540600
2025-09-30,129.74557555443596,131.76498814664785,129.74557555443596,131.66648864746094,310400
2025-10-01,131.34141139667054,132.35604794922318,130.33662028487404,132.1393280029297,310100
2025-10-02,131.66648573117217,132.38559368725765,130.97692912730892,131.19363403320312,398500
2025-10-03,130.49423360821496,131.58767874762543,130.45482178395852,131.23304748535156,402000
2025-10-06,130.90797079558112,131.21334480064905,129.45004891757588,129.9130401611328,447100
2025-10-07,130.13959122892322,130.53361925058735,127.8738925263408,128.6422576904297,438800
2025-10-08,129.22345454639873,130.04107697266164,128.31717806976172,129.6470489501953,361300
2025-10-09,129.73571125193516,130.8587077217144,128.258083526899,128.66197204589844,554200
2025-10-10,128.98704858156654,130.04108184834632,127.95270619480443,128.97718811035156,426000
2025-10-13,129.03630601031335,130.37602238234368,128.2186835523413,128.2777862548828,311400
2025-10-14,128.10046262811323,129.10525366111025,127.11537750629039,127.86405181884766,337400
2025-10-15,127.86406447402499,128.44526114593418,125.95299674355027,126.18942260742188,438300
2025-10-16,126.5243419047704,127.56852978216413,125.94313774513942,127.23360443115234,352700
2025-10-17,127.23361868299475,128.15960125344935,126.92824465044238,127.41092681884766,339700
2025-10-20,127.67688307805489,128.1497197271898,126.11060134384137,128.06106567382812,240500
2025-10-21,128.66197064438,129.80467301345007,127.19418837559832,128.62257385253906,311600
2025-10-22,128.70137488096933,130.13960588126338,128.04136960320932,128.12017822265625,357500
2025-10-23,128.2783732274755,130.04820070636612,128.1992726855578,129.29676818847656,378600
2025-10-24,129.27699821696652,129.41542040316887,127.09188897025071,127.42807006835938,489300
2025-10-27,127.68513804202082,128.43657062662018,127.00290900843953,127.32919311523438,521700
2025-10-28,127.29953156353623,127.65547648827675,126.03395296154486,126.6568603515625,413500
2025-10-29,125.84608767724626,126.06361040803851,122.02957306455488,122.9095458984375,651100
2025-10-30,122.6425973459498,124.10591981246533,121.65386309537952,122.95899200439453,702600
2025-10-31,113.99116650647636,116.76950718685458,102.0670345015107,114.70305633544922,2758200
2025-11-03,114.78215353846566,114.78215353846566,107.07003104374891,111.84561920166016,1661000
2025-11-04,113.0716415827989,114.69316503673943,111.26225622049985,112.89366912841797,1029100
2025-11-05,113.04198468525121,114.73271928879292,111.49955417930168,114.26801300048828,896900
2025-11-06,113.72420954512762,115.64235639440284,112.51796010267421,114.84148406982422,880300
2025-11-07,114.9205721317626,115.60279355716192,113.39792065465342,114.91068267822266,697200
2025-11-10,114.68328006091402,115.45449154553131,112.71570107535919,115.06888580322266,514000
2025-11-11,115.64235215314066,118.16362740289492,115.64235215314066,116.93759155273438,484800
2025-11-12,117.00680708571316,118.32182544371216,116.58165860151216,116.82884216308594,547500
2025-11-13,116.96725913412712,120.50692184487997,116.96725913412712,118.8458480834961,679400
2025-11-14,118.42069332802943,119.33033453666947,117.05624283023447,117.27376556396484,521200
2025-11-17,117.15511423578639,118.1438484441411,116.24548057452645,117.99553680419922,820200
2025-11-18,118.31193671929118,118.75686408712447,116.72995598156568,117.96587371826172,817400
2025-11-19,118.16362210922091,118.16362210922091,116.38389759577892,116.6706314086914,598900
2025-11-20,116.67063483535937,118.26249749040201,116.04773500908134,117.24410247802734,507400
2025-11-21,116.79916971414367,120.86286792776397,116.79916971414367,120.1509780883789,509100
2025-11-24,119.48852930748254,121.02107037008182,119.08315219875638,120.10154724121094,740000
2025-11-25,121.0309595133857,122.68214385066395,121.0309595133857,122.04935455322266,543600
2025-11-26,121.63407548431789,123.11717675407199,121.63407548431789,122.41517639160156,538000
2025-11-28,122.23721179455744,124.65961521692697,122.23721179455744,123.34459686279297,315700
2025-12-01,123.47312464549341,123.55222519221778,121.64396787729149,121.89115142822266,536800
2025-12-02,122.37563109798752,122.46462110038372,119.4390968008952,120.2300796508789,325400
2025-12-03,120.08176988930819,122.86011822072538,120.04222715811682,120.68489837646484,543100
2025-12-04,120.82332005860296,122.6821452414219,120.55636513524256,120.64534759521484,708000
2025-12-05,120.61568357957054,122.11856379579517,119.26112254625717,120.53659057617188,537000
2025-12-08,119.55773823925648,120.72444490270962,117.95599365521366,118.71731567382812,496600
2025-12-09,118.25260671307173,118.49979025868578,114.06037589162156,114.41632080078125,640300
2025-12-10,114.86125658975384,116.47289825316335,113.83297205936897,115.84999084472656,734700
2025-12-11,116.6310870053096,117.33308739219939,115.84010415999195,116.68052673339844,389700
2025-12-12,117.18477675810965,120.26963024864754,116.32458281214376,120.10154724121094,656400
2025-12-15,120.11144352151473,121.08039889052128,119.12270924260135,120.95186614990234,588600
2025-12-16,121.28802692871906,122.45473362902362,118.17351257639858,121.44622802734375,644800
2025-12-17,120.73433285185864,123.19627887906455,118.72720364799784,122.2372055053711,567300
2025-12-18,122.2767604710972,122.72169540087228,120.65523693661119,121.23859405517578,457100
2025-12-19,121.95048213130443,122.92933449703057,119.89392056770684,120.02245330810547,1300400
2025-12-22,120.02244905131522,122.30642273678362,119.70605439556444,121.35723876953125,527800
2025-12-23,121.48577032424926,121.6439638690421,119.95322934159698,120.81343078613281,311700
2025-12-24,121.14961134349309,121.78240068560056,120.3882892593289,121.36713409423828,198000
2025-12-26,120.99141254975284,122.08890816765887,120.34873378036154,121.86149597167969,306000
2025-12-29,121.90103810595791,122.90954365167185,120.9419647432383,121.82193756103516,400200
2025-12-30,121.41656795360201,122.89966931682952,121.04084411378047,121.35723876953125,289800
2025-12-31,120.15097596397585,121.94058998507745,119.98289296138277,120.58602142333984,314300
2026-01-02,120.36850209754444,121.61430932967109,119.4193181494529,121.15949249267578,295100
2026-01-05,120.38828287586783,123.17651312401219,120.38828287586783,121.61431121826172,435700
2026-01-06,120.8430922091253,121.46599202442482,118.7568624940921,119.20178985595703,777200
2026-01-07,119.31055741898699,120.57613602320409,116.28503309681528,119.0831527709961,478500
2026-01-08,118.56900865138992,121.98014631699301,118.17351344536358,121.06062316894531,330000
2026-01-09,120.70467850674399,123.5621198728979,120.09166055886544,122.4547348022461,429100
2026-01-12,122.60303947816963,123.88839694168902,121.59453392415777,123.72030639648438,477300
2026-01-13,123.64121411549613,124.02681984811237,121.15948917361368,122.10867309570312,351900
2026-01-14,122.71179941985773,125.7274416797615,122.71179941985773,125.42092895507812,611700
2026-01-15,125.70766789113175,125.78676843900955,123.11718152395939,123.7005386352539,381000
2026-01-16,122.60304567683241,123.78952374665012,121.85160554277793,123.30504608154297,363400
2026-01-20,123.49289879622381,124.11579860493296,122.0493478196131,122.42506408691406,275100
2026-01-21,122.90955081825824,124.20479780070094,122.50417370291805,123.60166931152344,421000
2026-01-22,123.64120901396967,124.98588806730808,122.66235676992284,123.06774139404297,369700
2026-01-23,122.93921055756546,124.85735737798285,122.4745118058816,124.58051300048828,429500
2026-01-26,124.99577817123766,125.55935637440064,123.69064930373163,124.92656707763672,315400
2026-01-27,123.54234245634069,124.87713973871088,122.77113094244734,123.33470916748047,303100
2026-01-28,122.80078648003611,123.6609879626866,121.8614919932062,122.3064193725586,347800
2026-01-29,122.88978028418853,123.86862507511535,121.20892754069328,122.4547348022461,386000
2026-01-30,121.52533188143772,123.60167232496788,121.27814831569736,123.54234313964844,512700
2026-02-02,122.80078342815366,124.49152553193812,122.80078342815366,123.42369079589844,489100
2026-02-03,122.51405462375108,126.48876266797768,122.29653189940339,123.22593688964844,658700
2026-02-04,124.77433039015442,129.44927260782487,123.77184577350829,128.26812744140625,589400
2026-02-05,126.71975064755804,128.1192596554473,121.05225107397254,123.05722045898438,2144200
2026-02-06,126.58078326238557,134.97782150042084,126.58078326238557,133.31031799316406,1045700
2026-02-09,132.5857587104382,138.531180271334,132.2582131007177,137.43936157226562,1043400
2026-02-10,136.78427392403074,139.88104683101494,136.78427392403074,139.126708984375,622100
2026-02-11,137.99519392074043,139.50388475135443,137.56840169460276,138.9678955078125,584300
2026-02-12,139.11678651599092,140.94308767923593,138.3525134196047,139.46417236328125,572700
2026-02-13,139.46416820425452,141.86615414747763,139.36492159879577,141.51876831054688,471900
2026-02-17,138.2234773285034,142.55102629654255,138.2234773285034,140.59568786621094,614700
2026-02-18,140.41703714664675,142.04482998774162,139.791721402891,140.66517639160156,582000
2026-02-19,140.5956812663536,142.25326464590432,139.98030082414553,142.09445190429688,525500
2026-02-20,142.0547550361601,144.0597244456509,140.94309602664507,143.97039794921875,664500
2026-02-23,142.42199361111417,145.15152505885825,142.06467252487357,144.63539123535156,513500
2026-02-24,144.98279666295065,145.8165408414096,142.77931908758302,143.06715393066406,429800
2026-02-25,141.3500320156877,142.5907281428982,139.3847584456305,141.61801147460938,348900
2026-02-26,142.45178416412276,142.8488009040386,139.9505362960431,140.73464965820312,331300
2026-02-27,140.47658357934912,142.9381205686862,139.9505296087492,142.64036560058594,344600
2026-03-02,141.93563886113196,142.2830398395081,140.56590547180699,141.60809326171875,335000
2026-03-03,139.5931967078321,140.26814325067423,135.90088396317486,138.71974182128906,347300
2026-03-04,138.302888395737,138.47162126788456,134.9976717766612,136.02000427246094,389000
2026-03-05,134.98775502807862,135.32522078079646,133.40959299752922,133.72720336914062,452300
2026-03-06,133.0026313554941,133.0026313554941,130.02496050425168,131.096923828125,398500
2026-03-09,129.9951790988654,132.98276993154295,126.58078092139597,132.75448608398438,545700
2026-03-10,132.3574660154593,133.1316591702968,130.42196798314936,131.14654541015625,503100
2026-03-11,130.8190202738326,132.28800044532838,129.0721101988683,131.03738403320312,563800
2026-03-12,130.29295237048808,131.8016279987067,127.68252279954663,127.90088653564453,620600
2026-03-13,129.1812869710477,129.1812869710477,126.10436937058473,127.69245147705078,660600
2026-03-16,128.51628506786432,130.4319280867629,125.06219070801843,128.08949279785156,370700
2026-03-17,129.00263581888095,130.04482370856644,127.28551643200822,128.5361328125,276700
2026-03-18,123.45423058912087,125.63786042046195,120.51626292882625,123.29542541503906,910500
2026-03-19,122.0944332187195,123.8909588849741,120.54603921873606,123.04728698730469,518500
2026-03-20,123.33512999241371,123.33512999241371,119.41452545613383,120.15894317626953,1481500
2026-03-23,122.59071811756196,125.39964869362488,122.0745842329971,123.21602630615234,455200
2026-03-24,122.2433152775169,124.28798013248851,121.95547285876513,123.22594451904297,405000
2026-03-25,124.50634549167631,125.62793211237509,122.78921864642815,124.88351440429688,337200
2026-03-26,124.28798636131239,126.3922023143744,123.19617519683187,123.76193237304688,442100
2026-03-27,123.01751427118627,123.28550132328671,120.85373975633635,121.08202362060547,381400
2026-03-30,121.64777727824665,123.01751071469691,120.19864504103799,122.44182586669922,562000
2026-03-31,123.46415851677581,126.01502957768723,122.67010992701152,125.08202362060547,557800
2026-04-01,126.39219982096562,127.68252689973865,125.38972274230011,125.80659484863281,380200
2026-04-02,124.2085781211438,126.14406117582702,123.32520302720033,125.07210540771484,297500
2026-04-06,123.66266876079281,125.25076596450165,123.66266876079281,125.07210540771484,461100
2026-04-07,124.38723692091199,126.22346576757812,123.8711106378232,124.67507934570312,376900
2026-04-08,130.4021481364575,131.68254004802253,127.19617800807119,131.03738403320312,645200
2026-04-09,130.24332882387228,131.45424955756675,126.39220287440348,130.42198181152344,424100
2026-04-10,131.2656579543429,131.71230555728022,129.87608426848973,130.521240234375,407400
2026-04-13,129.82646170678544,131.43439923843442,126.63042687940094,131.126708984375,396300
2026-04-14,130.2532453341348,131.73216065356567,129.99518597737963,130.03488159179688,315500
2026-04-15,129.83636721114993,130.0547309433663,127.64282491736233,128.68499755859375,407100
2026-04-16,125.9554827551545,129.3599535123959,125.9554827551545,127.33512878417969,393800
2026-04-17,128.68501330537714,131.31529853067389,128.68501330537714,129.65773010253906,401100
2026-04-20,129.59817078840075,131.00759986778516,128.69494031122633,129.945556640625,403600
2026-04-21,129.727195499975,131.2656618627598,125.7470474243164,125.7470474243164,310200
2026-04-22,126.33264680138942,126.33264680138942,122.04480110008107,123.62297058105469,458900
2026-04-23,124.44679072012924,126.49146323670142,123.51379231359721,124.01007080078125,440800
2026-04-24,123.48400922187079,123.48400922187079,121.6577005635927,123.15646362304688,440900
2026-04-27,123.11676141393268,125.2904634945878,122.6204829533344,123.80162811279297,359700
2026-04-28,125.18128618602746,125.70734016180099,122.79914797388655,124.8338851928711,354300
2026-04-29,124.20857785922294,124.96292327213307,121.87607050853111,121.9852523803711,448400
2026-04-30,122.51130595027864,125.14158341040145,120.97283963229869,122.75944519042969,764800
2026-05-01,126.26316859263083,127.5237125861033,117.0224658192811,118.13412475585938,989400
2026-05-04,117.79666211505766,120.84381172589876,116.58574139374336,119.7023696899414,739600
2026-05-05,120.00014032911528,122.78922301811379,119.92073395333378,121.1217269897461,628600
2026-05-06,122.74597925597982,125.94466800462597,121.24129756714204,122.19791412353516,917000
2026-05-07,122.5068295340525,126.02439054042098,122.13813047351475,124.66918182373047,749700
2026-05-08,124.78875603965518,125.4165335007669,119.9658058031768,120.56369018554688,794900
2026-05-11,120.79288554794945,120.79288554794945,119.0191585502766,119.53732299804688,706100
2026-05-12,120.02559365453983,120.43415267647454,116.72725880994862,117.6340560913086,696600
2026-05-13,117.58423293808002,118.33159035082205,116.01976505817387,117.46465301513672,679500
2026-05-14,118.31166263789773,119.73662439056804,116.62761485678391,117.57426452636719,531000
2026-05-15,117.49455009110837,117.5045093824967,114.06666843041747,114.26596069335938,447000
2026-05-18,115.19268785792543,116.90662874327987,114.76420263658683,115.40194702148438,433100
2026-05-19,115.48166685737739,115.63113986049136,112.05378509001822,113.20970153808594,575800
2026-05-20,113.66807993613209,115.04321484042606,111.15696237122292,114.85388946533203,562600
2026-05-21,116.08951407739181,116.08951407739181,112.37265332877841,115.1030044555664,345600
2026-05-22,115.39198749681162,116.38846404651633,114.30582410432685,115.82047271728516,405800
2026-05-26,115.79056648170686,116.55785764558959,114.96349676302546,115.96993255615234,344500
2026-05-27,116.52796630163347,117.69384200162881,114.32575411191587,114.89374542236328,464000
2026-05-28,114.40547144179769,115.93007936247552,112.95061657623215,115.58131408691406,510100
2026-05-29,114.65458561775299,116.84683851674723,113.34920381323532,115.44180297851562,559600
2026-06-01,114.28589767180515,114.72434218302038,111.63526640610465,111.9840316772461,706800
2026-06-02,111.5555436879482,112.65167394505289,110.84804626905223,111.78473663330078,452400
2026-06-03,111.29646253608045,113.61824699938008,111.29646253608045,112.13349914550781,372600
2026-06-04,114.54497230632394,115.35212345281656,111.14699134502068,112.15343475341797,337600
2026-06-05,112.69152600064275,114.18624078068318,111.58544405772433,112.96057891845703,466300
2026-06-08,111.86445781905672,112.24311616501637,110.55906839000053,111.54558563232422,422200
2026-06-09,112.88085932662787,115.74074968498803,112.27300803930216,115.49163055419922,444400
2026-06-10,115.74074928767203,116.13934141606836,112.97054577921195,114.26596069335938,496800
2026-06-11,114.70441351982215,116.59772043978674,113.85740999319688,116.16923522949219,395200
2026-06-12,117.48458764205596,118.05257897569324,115.96993901734801,117.30522155761719,342600
2026-06-15,118.28175862932584,120.31457162088154,117.14577601676713,117.66394805908203,576100
2026-06-16,118.08246565966249,120.62348378448296,113.36912845320511,120.22489166259766,474700
2026-06-17,121.19147655168894,121.918900150595,119.03908362900873,119.56721496582031,680500
2026-06-18,120.03556323646836,122.1182031608104,118.69032142639777,119.89605712890625,750600
2026-06-22,119.13873446752551,120.58363003359555,118.46113010611298,119.57718658447266,468400
2026-06-23,119.93591657137902,122.14809569936509,118.6604278207416,120.1850357055664,514100
2026-06-24,121.55021059109053,124.60939323702425,121.34094382937874,123.84210205078125,404900
2026-06-25,125.28699706013307,127.68850153642342,124.45991971828299,125.98452758789062,363500
2026-06-26,125.49625757990486,126.67210019838983,124.3204149614199,125.53611755371094,727400
2026-06-29,125.16742108368359,125.60587320209562,123.48337326752176,124.84854888916016,446600
2026-06-30,124.16097333332938,125.86494727656601,123.5033027809896,124.75885772705078,329300
2026-07-01,124.67914609082169,126.39307933521575,123.66273577346423,124.80868530273438,405600
2026-07-02,125.82508774888942,127.77818082996899,124.96812492977865,126.5325927734375,468400
2026-07-06,125.98452783897301,126.6023460237271,123.74245564919634,125.56600952148438,431400
2026-07-07,126.18381913439254,128.26645901687073,125.71548155556971,127.2400894165039,392700
2026-07-08,126.00445175211411,126.26353777363065,122.60647080352626,123.77234649658203,537700
2026-07-09,124.02146439127118,125.03787467960888,123.34386006655016,124.0114974975586,302100
2026-07-10,124.55956853594634,126.53259544666133,123.93179104742975,125.08769989013672,385200
2026-07-13,125.64571994715708,126.72191640641843,123.96167980892794,124.449951171875,391600
2026-07-14,127.96751666781715,128.95403392567474,127.5091383673285,127.82801055908203,739900
2026-07-15,129.25298235497795,130.3092450844948,127.99741214779503,128.65509033203125,466800
2026-07-16,129.56187796196684,134.6040465870392,129.56187796196684,134.27520751953125,579300
2026-07-17,135.351401437915,136.16850424088722,130.24944675099272,132.1427459716797,530800
2026-07-20,131.9135687694055,131.9135687694055,129.2928306127641,129.4522705078125,422900
2026-07-21,130.07008242817932,130.59821378154385,127.46927803301472,128.45579528808594,328800
2026-07-22,129.35261865201468,130.02025611657908,128.02730301458666,128.71487426757812,309900
2026-07-23,128.39600579528673,129.36258923692642,127.71839385448645,128.54547119140625,382800
2026-07-24,129.13338680160044,132.26232242316664,129.13338680160044,131.8936309814453,335900
2026-07-27,132.72071171310446,133.60757521827134,132.19258036761323,132.9000701904297,411200
2026-07-28,134.9030016293852,137.54365843276426,134.3549364800917,137.32443237304688,593100
2026-07-29,135.52081464440568,136.11870667337666,134.0759266469227,135.75,580000
2026-07-30,136.39999389648438,136.39999389648438,133.11000061035156,133.8699951171875,627000
2026-07-31,137.4600067138672,139.57000732421875,132.1699981689453,133.9600067138672,886500
2026-08-03,137.22999572753906,138.4600067138672,134.52999877929688,136.77000427246094,642500
2026-08-04,137.8699951171875,137.8699951171875,135.33999633789062,136.17999267578125,511900
2026-08-05,136.8699951171875,136.8800048828125,134.8699951171875,136.75,454800
2026-08-06,138.6199951171875,138.69000244140625,134.6699981689453,135.77999877929688,545000
2026-08-07,135.05999755859375,137.67999267578125,134.7100067138672,135.4199981689453,686300
2026-08-10,134.38999938964844,134.52000427246094,132.92999267578125,133.67999267578125,446700
2026-08-11,132.8000030517578,135.0500030517578,132.8000030517578,134.75,343700
2026-08-12,133.50999450683594,134.47000122070312,132.27000427246094,133.14999389648438,315100
2026-08-13,134.44000244140625,134.44000244140625,132.08999633789062,132.57000732421875,490800
2026-08-14,132.08999633789062,132.75,129.55999755859375,132.10000610351562,381600
2026-08-17,133.16000366210938,133.16000366210938,130.22000122070312,131.74000549316406,374500
2026-08-18,132.75,133.47000122070312,131.22000122070312,131.72999572753906,500100
2026-08-19,133.0500030517578,134.3800048828125,132.2899932861328,132.92999267578125,390400
2026-08-20,131.4499969482422,133.8300018310547,130.89999389648438,132.9600067138672,420900
2026-08-21,134.0399932861328,135.125,133.13499450683594,134.8000030517578,225824
