Date,Open,High,Low,Close,Volume
2023-08-04,116.02298652948932,117.47543279326784,115.8883227346837,116.04222106933594,116500
2023-08-07,116.1287947722877,117.02335131643545,115.91717814097566,116.66744995117188,140300
2023-08-08,115.50356429159625,116.77325672406744,115.1476629310347,116.5039291381836,270100
2023-08-09,116.5039344546705,118.68741805869142,115.92679550015245,117.18687438964844,287500
2023-08-10,117.15800483933467,118.86054400253863,117.15800483933467,117.57161712646484,216000
2023-08-11,116.87905804838567,118.52388628263004,116.87905804838567,117.9371337890625,226500
2023-08-14,117.37923091257629,118.30264282226562,116.94638410256194,118.30264282226562,145700
2023-08-15,117.956378960936,118.24494843378245,117.33115733414623,117.43695831298828,249000
2023-08-16,117.09067434641418,118.46617500714814,116.85981585412429,116.90791320800781,291100
2023-08-17,117.31192390823612,117.98525028051871,116.9848853314969,117.00411987304688,186600
2023-08-18,116.75401425810986,118.71626752361922,116.75401425810986,118.59122467041016,443100
2023-08-21,118.45657390333537,119.7166455289142,118.37000011957406,119.06256103515625,358800
2023-08-22,119.14912600366445,120.9189972448731,118.08142922757334,118.2641830444336,429600
2023-08-23,118.36999112470143,118.85093535301714,117.64857478222787,118.68741607666016,305000
2023-08-24,118.78361865725543,120.67854033352329,117.9179174677641,120.34188079833984,278400
2023-08-25,120.78431619879032,122.81390114359978,120.21680561182608,122.67923736572266,493000
2023-08-28,122.76582909708209,124.64151611321,122.76582909708209,124.47799682617188,331900
2023-08-29,124.85310877370199,126.93079109909763,124.46834463348918,126.79612731933594,472400
2023-08-30,127.32515422708775,128.18123425828122,126.68069080380738,127.8253402709961,298900
2023-08-31,128.20047243764535,128.63331924053045,127.20011505592758,127.5079116821289,305800
2023-09-01,128.0273554739826,128.69104615956167,127.46945842518569,127.4983139038086,252000
2023-09-05,126.66146169919045,126.95003116428316,122.50611130451453,122.7081069946289,325300
2023-09-06,122.91971901854386,123.13132830124047,121.39031265265571,121.59231567382812,291100
2023-09-07,121.47689297594711,122.32335216826341,120.37071979304557,120.58233642578125,328600
2023-09-08,120.72660753492579,121.84239419256309,120.35147166964357,120.53422546386719,238800
2023-09-11,122.15021460292593,123.05439211199419,121.5923248683561,122.1694564819336,333500
2023-09-12,121.30374940797992,122.43877803875952,120.64004404886371,121.7077407836914,258000
2023-09-13,120.98631223028912,121.76543942444462,120.34184881441666,120.5919418334961,279300
2023-09-14,121.20756165253754,122.44839859285891,121.20756165253754,121.9289779663086,217900
2023-09-15,121.66925510218753,122.3521949487362,120.39956277617969,121.13059997558594,589200
2023-09-18,121.54423019858976,121.54423019858976,120.15910842445712,120.85166931152344,175100
2023-09-19,120.8997477295657,120.8997477295657,119.3318650395971,120.53422546386719,218600
2023-09-20,121.04403393623863,121.29412697753905,119.81281794618458,119.8801498413086,206200
2023-09-21,119.5915970075996,119.61083154828877,117.5331562384029,117.56201171875,335700
2023-09-22,117.66781134829976,118.21608745028,117.45619472321509,118.00447082519531,341200
2023-09-25,117.34076318501396,119.3992037620622,116.84058444889169,119.31263732910156,258800
2023-09-26,118.82207240268929,119.4857777443957,118.53351028701881,118.889404296875,547000
2023-09-27,119.31262498785472,119.70699537270441,118.18721744401799,118.81243896484375,362400
2023-09-28,119.13949239900526,120.85165249904773,118.56236085294752,120.6881332397461,219300
2023-09-29,121.66927149003342,121.99631738853884,120.03406401338636,120.2745361328125,330900
2023-10-02,119.78397828008337,120.69777679296456,119.26455758972114,120.28416442871094,244100
2023-10-03,119.29340648562564,120.53424350988173,117.82171828016256,118.18724060058594,236300
2023-10-04,118.84132265546667,119.90901943753225,117.66781755527735,119.49540710449219,208200
2023-10-05,119.23567945050839,120.1687123278283,118.11989277624103,119.03368377685547,466700
2023-10-06,118.89902522929134,121.86164325055658,118.68740860796868,121.59231567382812,491700
2023-10-09,121.02479420203984,122.37143938534139,120.89975135607021,122.10211181640625,275700
2023-10-10,122.3906650650089,123.70845467606019,121.68849071662689,121.71734619140625,322000
2023-10-11,122.66963958740234,122.83315887160722,121.82318034684748,122.66963958740234,212900
2023-10-12,122.37143953710256,122.54457973715071,120.29375713652479,120.6400375366211,189300
2023-10-13,121.19794575056598,121.84240925638196,120.62081414328858,121.1690902709961,324900
2023-10-16,122.50610354279256,122.57343543523135,121.36145403270736,121.88087463378906,275200
2023-10-17,121.20755913507936,123.44875352595633,121.20755913507936,122.62153625488281,314400
2023-10-18,122.03479307787752,122.8042994522595,121.46727506334268,121.9482192993164,287300
2023-10-19,121.27488424535677,122.61190845722675,120.61117893923942,120.93822479248047,443900
2023-10-20,121.13061711466817,121.65965871645427,117.2830631776834,117.56201171875,446500
2023-10-23,117.08106243237853,118.46618413837787,116.59049727173269,116.86944580078125,379000
2023-10-24,117.47543620540878,119.05293270920211,117.08106574877378,118.63932037353516,312100
2023-10-25,118.15676512830933,119.45964393442463,117.63561213324283,118.09886169433594,431300
2023-10-26,117.02761412299786,121.0134603739244,117.02761412299786,119.12187194824219,576000
2023-10-27,119.16048296205888,119.51756400540363,116.15903183159877,116.94075775146484,364000
2023-10-30,117.66457911449282,118.05061923829989,116.63192601709312,117.90585327148438,283100
2023-10-31,118.23398596724621,118.60072002279092,117.57771998783277,118.00235748291016,422900
2023-11-01,117.84794906764095,119.12187631379118,117.36540075677947,118.63932800292969,360500
2023-11-02,119.40175264455395,119.95185741255717,118.68758322153812,119.26663970947266,384300
2023-11-03,120.086951292021,121.57320070517726,120.086951292021,120.97483825683594,278000
2023-11-06,120.89764432950582,121.34159523213705,120.39579735185238,120.82044219970703,173500
2023-11-07,120.27033814314946,120.62741916445184,119.8360402653971,120.2027816772461,205000
2023-11-08,120.52126305068572,121.10997257693651,120.06767382506065,120.75289154052734,175800
2023-11-09,121.30298351927328,121.30298351927328,119.73952451177246,120.04835510253906,118600
2023-11-10,119.90358602094061,121.39948852773999,119.56580372159614,121.3319320678711,195600
2023-11-13,121.01345529818798,121.1003178161299,120.02906006116073,120.1834716796875,183100
2023-11-14,121.55391115797988,123.39724915782807,120.936249936579,123.3875961303711,267400
2023-11-15,123.3586407628021,124.30443862184565,122.90504420607215,123.25247955322266,388600
2023-11-16,123.1945687845745,124.13070619763076,122.41283561845891,123.09806060791016,217000
2023-11-17,124.07280612990299,124.57466044313415,123.1559673820683,123.46479797363281,162700
2023-11-20,123.00155090272261,123.1945746283093,122.01715567308845,122.87609100341797,213900
2023-11-21,123.0112053695368,123.82189030028484,122.76027820488832,123.44550323486328,160600
2023-11-22,123.96665215202738,124.69047458350228,122.91470041923974,124.08247375488281,174800
2023-11-24,124.46850623760841,124.46850623760841,123.6288769312162,124.04386138916016,65900
2023-11-27,123.35864729016578,123.82189689857947,122.42250240875883,122.56726837158203,367500
2023-11-28,122.56725255670662,122.57690558314336,121.10995481503318,121.22576904296875,218000
2023-11-29,121.25472106402746,121.9881964499266,120.55985042087056,120.99414825439453,331800
2023-11-30,121.07136390507863,122.69272646591232,120.45370267838986,122.46110534667969,301000
2023-12-01,122.0075133766965,124.05351350614691,122.0075133766965,123.6288833618164,218300
2023-12-04,123.00155352374544,124.38164926101614,122.46110180679085,123.93769836425781,192000
2023-12-05,123.77363433441964,124.1982791787773,121.48635282699652,121.59251403808594,178000
2023-12-06,121.9785577252861,122.85679915866584,121.48635640148973,121.95925903320312,179500
2023-12-07,121.83378385096688,122.67342048254547,121.59250971853534,122.07505798339844,254000
2023-12-08,121.94959920990867,123.04980867489485,121.2354298329936,122.87609100341797,265800
2023-12-11,122.81819302140134,123.22353181848027,121.93029857047753,123.11737060546875,338000
2023-12-12,123.19458223267412,123.62888011972512,122.25843735432503,123.030517578125,210300
2023-12-13,122.74097856816276,124.4878083169758,122.74097856816276,124.10176086425781,425000
2023-12-14,124.57467068526118,125.47220345317041,122.45145375097674,122.95330810546875,412900
2023-12-15,122.72167704235878,124.09211233389199,121.57320982713335,121.5828628540039,713000
2023-12-18,122.2873800147062,122.76992827805668,121.48634813039989,122.61551666259766,240500
2023-12-19,123.25248896561007,123.65783514364217,121.6311263427904,121.82415008544922,659100
2023-12-20,121.62146243272905,122.50935684330899,121.08101072784736,121.18717193603516,346400
2023-12-21,121.83378846573932,121.83378846573932,120.49230482765589,121.51531219482422,421900
2023-12-22,121.98821446560005,122.60587571449095,121.71798858959814,121.86274719238281,312200
2023-12-26,121.7372726533808,122.44179634238442,121.20646662994645,121.43809509277344,274700
2023-12-27,121.7179801620288,122.05576248364365,120.66602108831127,120.90729522705078,283100
2023-12-28,120.6177783132652,121.40915724389927,120.05802050881351,120.83009338378906,343600
2023-12-29,120.82043808829643,120.98450273280184,119.24732601714967,119.30523681640625,313500
2024-01-02,118.33048400507984,119.76847574725994,118.02165341555587,118.59105682373047,313100
2024-01-03,120.78182769015574,122.81818188143322,118.85163470226065,120.9844970703125,531700
2024-01-04,120.81077670302624,121.52494603089515,119.79742246182032,119.88428497314453,353300
2024-01-05,119.45965904846831,120.02906988595586,118.69723183124766,119.86499786376953,423000
2024-01-08,119.73953213187556,120.79149123065565,118.09887089459961,120.00975799560547,352400
2024-01-09,119.39208129228734,120.2896212879152,118.67791197888397,120.27996826171875,250300
2024-01-10,120.11591846241205,121.04241028792013,119.89395037419895,120.82044219970703,279600
2024-01-11,121.00380927134914,122.53831669687723,120.57917177350777,122.41284942626953,323100
2024-01-12,123.4261986038641,123.50340809589281,121.52495720049569,122.01715850830078,231700
2024-01-16,121.48634817990717,122.39354127156845,121.12926717726768,122.3838882446289,257500
2024-01-17,121.54425926799404,122.82783205612957,121.4960014962835,122.26808166503906,336900
2024-01-18,122.876100447986,125.47220532952528,121.90135080738276,124.63257598876953,444200
2024-01-19,125.18269023740162,126.87160933829033,124.0535142223177,126.2346420288086,418000
2024-01-22,126.33112146870488,127.20936278677414,126.00299220465814,126.61100769042969,266200
2024-01-23,127.19970886950027,127.24796663489413,125.78101597889527,127.2286605834961,217800
2024-01-24,127.50855793954003,127.67262259421514,125.9837035460705,126.21533203125,294400
2024-01-25,127.4216965566274,127.75948624024079,125.82929313663216,126.6689224243164,332300
2024-01-26,127.08391202345744,127.96215345548178,126.81368615609692,127.10321807861328,219900
2024-01-29,126.47588991643843,127.96213193699042,125.93543827260136,127.63400268554688,187800
2024-01-30,127.42168029315333,128.4446801513025,127.0356476121848,127.63400268554688,228400
2024-01-31,128.14709571545094,128.53434368250345,125.03951017935186,125.73654174804688,537500
2024-02-01,126.29804406272626,126.92730171682662,125.47515503321043,126.33676147460938,298800
2024-02-02,125.81401369441663,126.5400871431397,124.58452518508494,125.94954681396484,344800
2024-02-05,125.01048880090507,127.25646828783212,123.96494127747282,126.48198699951172,319500
2024-02-06,126.31739050105034,127.20803865994195,125.17504224464571,126.94666290283203,369700
2024-02-07,127.21774880570729,128.19552236848855,125.24282081394894,127.59530639648438,393000
2024-02-08,127.44039987265825,130.53831002584943,127.3435841792457,127.90508270263672,620700
2024-02-09,127.89540969408253,134.7689104528772,127.31454506556426,134.52688598632812,650900
2024-02-12,134.72051017566284,135.98871608812559,133.12313974347538,133.21995544433594,491300
2024-02-13,132.3293155563288,132.94889767408426,130.67386150701182,131.5935516357422,275900
2024-02-14,131.9130184285909,133.07474776047272,130.8577952317336,132.7939910888672,335000
2024-02-15,132.79401784163878,133.4136000498629,130.27697158348053,130.73196411132812,471400
2024-02-16,131.05138100848956,133.59748268821022,130.7319069946388,133.11343383789062,453900
2024-02-20,132.76492924425213,135.66922259050702,132.580988302136,135.23358154296875,373000
2024-02-21,134.6430432067918,135.6401827546635,134.5559179504535,135.53369140625,276300
2024-02-22,135.9887045298492,137.87649236016304,135.60147130332354,136.95680236816406,295700
2024-02-23,137.44083622805496,137.51828581927415,136.1145470619241,136.8502960205078,190300
2024-02-26,136.98584148427423,137.5279738997732,136.3081759649005,137.39244079589844,199200
2024-02-27,137.39243933350093,137.64413944601768,135.3400767046714,135.83380126953125,244600
2024-02-28,135.19488484214043,136.7341719463713,134.88510115200842,135.93064880371094,189600
2024-02-29,136.14360929042408,137.1117071682836,135.36912803373622,135.97903442382812,250600
2024-03-01,135.41752898322991,136.298486780481,135.10773058753682,135.81443786621094,151400
2024-03-04,136.20167928350625,137.58605202090553,136.07582184483363,137.43116760253906,260300
2024-03-05,137.73128791076408,138.64130227082694,137.21819722213309,137.9733123779297,190200
2024-03-06,138.37021994084103,139.05757592063267,137.93457885855102,138.50576782226562,184000
2024-03-07,139.8901458387967,140.5097279007667,139.25119768276474,140.0353546142578,250100
2024-03-08,140.09345993941886,140.44197579004816,138.40896419937695,138.52513122558594,185200
2024-03-11,138.23470289544156,138.80589192553307,137.4505459017938,138.18630981445312,226700
2024-03-12,138.24437886769354,138.29278671562085,136.9664825880185,137.8668212890625,242200
2024-03-13,138.43798895737592,138.43798895737592,136.4340193693208,136.6566925048828,336800
2024-03-14,136.8503413578885,137.10204153373775,135.8822433049244,136.43405151367188,235200
2024-03-15,135.57240492142637,137.86680667638342,135.28198740864667,136.5017852783203,599500
2024-03-18,136.43402821831805,136.79223448171572,134.49783244298447,134.8173065185547,299700
2024-03-19,134.44943456936542,135.84349784138894,134.44943456936542,135.059326171875,253000
2024-03-20,135.17551943672254,135.6014848917867,134.70114613049162,135.50466918945312,220000
2024-03-21,135.83379094940284,137.08264530093032,134.8560175541442,136.63731384277344,255800
2024-03-22,137.47958214730536,137.9055476013454,136.55021640394727,137.07298278808594,276000
2024-03-25,136.69541504364804,139.4544998568,136.66637328957285,138.39927673339844,316300
2024-03-26,138.27341558365592,139.70619624368913,138.0701085385698,138.63160705566406,314200
2024-03-27,139.08660656444317,140.5193871456138,139.08660656444317,140.04502868652344,218200
2024-03-28,140.1999450522203,140.71303575776633,139.06725750918295,139.2996063232422,247800
2024-04-01,139.20278768938965,139.20278768938965,137.58606600215256,137.75064086914062,204400
2024-04-02,137.3149751577352,137.3149751577352,135.9112364375765,136.14358520507812,202600
2024-04-03,136.1823130834933,136.68572806578385,135.40783190427706,136.3856201171875,258700
2024-04-04,137.3053243590496,138.1959726377349,136.47275958975655,137.22787475585938,403600
2024-04-05,136.86968595043953,138.20565100866335,136.45339617162944,137.20851135253906,288300
2024-04-08,137.15040168122644,137.83775755940698,135.91123778625203,136.02740478515625,312500
2024-04-09,135.94029261944223,136.59860681125565,134.91411130502746,135.83380126953125,242600
2024-04-10,134.54623575653343,135.74668241469655,134.03314507512525,134.9528350830078,200700
2024-04-11,134.8173099688125,135.57242515875745,134.03315302325444,134.69146728515625,265300
2024-04-12,133.76208470665995,134.51719988484666,131.62259662579817,132.82302856445312,299200
2024-04-15,134.18803080372464,135.349745158721,133.43291573437705,133.79110717773438,319600
2024-04-16,133.3941894593336,134.94315184926018,132.9779144955909,134.16867065429688,281700
2024-04-17,134.44943883100882,135.03028869809586,133.93634813434798,133.9847412109375,565400
2024-04-18,133.97507218918878,134.99157797196605,133.81049731342517,134.67210388183594,246600
2024-04-19,134.62369389699214,135.4562586960129,134.34295200090463,134.89476013183594,276600
2024-04-22,135.09803598219477,136.64698342744765,134.80760371996035,135.84347534179688,298800
2024-04-23,135.31105737697965,136.65671296414016,135.06903288452628,135.67892456054688,417200
2024-04-24,135.88283187941434,136.8052204354619,135.58184333310518,135.9410858154297,559200
2024-04-25,135.7759789653954,137.14500522813296,134.88271770033433,136.10609436035156,694400
2024-04-26,137.87323164710924,144.19403432783037,137.77613189586884,139.16458129882812,489500
2024-04-29,140.6889316606444,143.718268755578,140.17433562764535,142.1259307861328,676700
2024-04-30,141.50452795897255,141.85406627729742,139.8733442016764,140.18405151367188,585100
2024-05-01,140.77636391358544,142.9318483462627,140.37827561400445,141.155029296875,359600
2024-05-02,141.52398284049588,142.46579432024046,141.0676405847291,141.67933654785156,356500
2024-05-03,142.8347262098354,142.85414912308485,140.63069223929037,142.54344177246094,303300
2024-05-06,143.46584874866832,144.74749451317692,142.88329461371845,144.70864868164062,260200
2024-05-07,144.00958866873592,146.00971937546657,144.00958866873592,145.368896484375,392900
2024-05-08,145.36889477978409,146.48546798558442,145.13586423611673,146.4077911376953,223500
2024-05-09,146.6116974972741,147.32047837661355,144.31057824435283,144.74749755859375,299100
2024-05-10,144.62126017257594,144.6698100517693,143.78625262261644,144.1746368408203,186300
2024-05-13,144.21348527947174,145.1358738342205,142.59201986283358,143.57266235351562,167500
2024-05-14,143.99014505242278,143.99984910137368,143.18426452924012,143.6017608642578,137600
2024-05-15,143.66001677139636,144.02896319801914,142.50459798974526,142.99977111816406,211100
2024-05-16,143.08715481169418,143.60175086174465,142.17447055225648,143.25221252441406,235500
2024-05-17,143.55324035133813,143.8639329180127,142.85416355714113,143.3784637451172,169500
2024-05-20,143.30076094395258,144.0969373546569,142.76674198742418,143.86390686035156,163400
2024-05-21,143.64060931065208,144.35909414501361,142.81530585917272,144.27171325683594,280400
2024-05-22,143.7668346921676,144.50474243328088,143.18426581237048,144.4658966064453,283300
2024-05-23,144.3396862943476,144.62125187296155,143.27164827475897,143.427001953125,171700
2024-05-24,144.1649049429506,144.50473925123936,143.07745886097342,143.78623962402344,162300
2024-05-28,143.32990795502417,143.48526163962768,141.58223085693479,142.4463653564453,318400
2024-05-29,141.41717982275944,142.4366681619791,140.31031057840968,140.63072204589844,229700
2024-05-30,140.91228668269574,142.70851373087208,140.78605995699684,141.89292907714844,328100
2024-05-31,141.8443808876884,143.5338189608347,141.6793231449918,143.39788818359375,358900
2024-06-03,144.18433298516325,144.18433298516325,142.0288488421779,143.85421752929688,266200
2024-06-04,143.35904679128393,144.07754653057066,142.43665828749494,143.88336181640625,287900
2024-06-05,143.42700061426063,143.89304682966602,142.80560072193944,143.62118530273438,229200
2024-06-06,143.7085510142787,143.7085510142787,141.17440183665215,141.7181396484375,197600
2024-06-07,141.53366068244839,142.07738368524713,141.2229533577973,141.32005310058594,179100
2024-06-10,140.62097903208888,141.5724943045568,139.80539451283065,141.35888671875,125800
2024-06-11,140.6986648827164,141.50454540530546,140.15494183502784,141.27151489257812,147700
2024-06-12,141.9900224631697,142.05798044025738,139.88308812796836,141.59193420410156,221300
2024-06-13,141.6501881317032,142.27158805169188,140.805476550794,141.59193420410156,232400
2024-06-14,140.8734351702916,141.15501557544053,139.50440860403918,140.54331970214844,141500
2024-06-17,140.6598464606111,142.41724265904358,140.36857678213207,142.07742309570312,303800
2024-06-18,142.22303735719075,143.39787921333664,142.2133333077604,142.42694091796875,219900
2024-06-20,142.3977978909361,143.24250937170754,141.436563753432,141.57249450683594,199900
2024-06-21,141.6307756362361,142.8638715174382,141.0870525181657,142.58230590820312,444100
2024-06-24,142.94153910100914,143.92218146002028,142.4075200677485,142.45606994628906,182900
2024-06-25,142.52401968431698,142.53373854866894,140.30057760299235,140.65011596679688,194500
2024-06-26,140.05786957330074,140.58216981066397,138.80536550800005,139.5335693359375,192400
2024-06-27,139.68885803222656,139.6985768949275,138.13536598004555,139.68885803222656,377300
2024-06-28,139.60150714084187,140.12582211775148,136.01874245488284,136.7178192138672,435100
2024-07-01,137.27127014880173,137.36835509564582,134.36815911737452,134.5137939453125,306400
2024-07-02,134.45551784033776,136.41681715340104,133.7564411508368,136.31971740722656,259400
2024-07-03,136.78579030057608,137.2906675416146,136.4848018027494,137.11590576171875,143300
2024-07-05,136.89261727770193,137.3295366167457,135.66922534996536,136.8052215576172,207000
2024-07-08,137.53340696834337,138.35871046567937,137.38777214662196,137.39747619628906,249300
2024-07-09,136.76637614080624,137.1644644187289,135.6886339831031,135.97019958496094,238400
2024-07-10,136.65958343579476,137.51401399143685,136.4848216305105,137.1838836669922,142000
2024-07-11,137.09648258623827,139.13545890652216,136.65956332198957,137.9606170654297,244500
2024-07-12,139.2422698494713,141.2618233593471,139.2422698494713,140.38796997070312,263900
2024-07-15,140.55302268784044,141.45600300897715,138.98010738595784,139.2616729736328,319900
2024-07-16,139.66946784903956,141.07732529464843,139.66946784903956,140.35882568359375,178800
2024-07-17,140.145223926781,141.53367333298914,140.145223926781,140.65011596679688,242300
2024-07-18,140.4074042597719,142.97068107315562,140.39770020918226,142.02886962890625,434200
2024-07-19,142.32981907788866,142.32981907788866,140.45591556995473,141.69871520996094,251200
2024-07-22,141.74727638845377,143.27164169328665,141.02877677052334,142.9123992919922,235700
2024-07-23,143.572641002004,144.19404091845544,141.43657971516106,141.7958221435547,234500
2024-07-24,141.82498394212112,142.36870709384863,139.71803450615988,139.95106506347656,250600
2024-07-25,139.1134168154453,140.30167233708127,137.54531009340042,137.80828857421875,558100
2024-07-26,139.40562054037346,147.35327797180082,138.64591810105864,142.84376525878906,562800
2024-07-29,142.76584597383152,144.4897929937424,141.39253199421196,143.9541015625,390900
2024-07-30,143.5450338076538,144.05149220142636,141.62629393482098,141.9574432373047,411000
2024-07-31,142.687920277237,144.9767768202367,141.62628675803276,143.15542602539062,280600
2024-08-01,143.0580564170797,145.64882955447564,141.64577481833908,143.2041473388672,335300
2024-08-02,142.76585813776398,143.1749275760007,140.0094955037422,141.89901733398438,213500
2024-08-05,139.69780574748174,139.69780574748174,135.85059153457982,137.0193634033203,448500
2024-08-06,137.65246713764915,142.28860227483594,137.43819054803106,141.15878295898438,476000
2024-08-07,142.21068163315522,143.42815549610452,139.7367812828085,139.8634033203125,353600
2024-08-08,140.70101663202263,142.356778003838,140.70101663202263,141.7723846435547,268600
2024-08-09,141.62630065454624,141.62630065454624,139.73677887394297,140.20428466796875,263200
2024-08-12,140.22376060481798,140.42828787630694,139.05498875394557,139.5614471435547,221100
2024-08-13,139.77575009355726,141.51918118976857,139.37642991519138,140.61337280273438,212000
2024-08-14,140.37960449405662,141.04190311093822,139.75625849980418,140.15557861328125,115700
2024-08-15,141.22696922822865,143.50607675102486,141.22696922822865,143.18466186523438,277500
2024-08-16,142.3080938053694,143.01909442160505,141.82110423172318,142.9022216796875,250600
2024-08-19,142.51264091252753,143.8859402629572,142.12304032304087,143.14572143554688,191200
2024-08-20,143.15544136166255,144.45083532458932,143.15544136166255,144.25604248046875,387200
2024-08-21,144.3144557805946,145.67803519496948,143.62293906523604,145.44427490234375,267300
2024-08-22,145.6780688711514,146.48645848882754,144.80147871746917,145.1131591796875,200400
2024-08-23,145.76568825881577,146.6130451606969,145.5514117081752,146.525390625,221400
2024-08-26,146.75915922191393,148.6973829226023,146.23321706296485,146.25270080566406,235500
2024-08-27,146.10658758715397,147.59677430031587,145.94101293699603,147.265625,208300
2024-08-28,147.00265865265132,148.01560524076524,147.00265865265132,147.59678649902344,249000
2024-08-29,148.58049863148904,148.9311316640923,147.27537034525355,148.31752014160156,187100
2024-08-30,148.23959762370004,149.4473369078232,147.69417177336692,149.20384216308594,178500
2024-09-03,148.15196236389943,148.4149408837286,145.8338873365541,146.1358184814453,362400
2024-09-04,145.7072750829975,146.97343598691867,145.7072750829975,146.807861328125,175800
2024-09-05,147.1487592794206,147.81105791158635,146.04815817755215,146.79812622070312,200600
2024-09-06,146.4669590943475,149.13565190287514,146.4669590943475,148.4149169921875,319100
2024-09-09,148.5999677014531,149.07720785028144,147.4993667902164,147.95713806152344,241500
2024-09-10,147.9182142783209,148.81427334637254,147.49941036181824,147.5675811767578,158100
2024-09-11,146.86629136229539,146.95396076989897,144.76250795288001,146.9149932861328,178000
2024-09-12,146.963724985921,148.05457696453936,146.06766588037829,148.00588989257812,200400
2024-09-13,148.22986559888577,149.02852064652984,147.9474033678148,148.31752014160156,138600
2024-09-16,149.0577507849576,149.18437282019818,148.11300475699895,149.00906372070312,182900
2024-09-17,149.99278031830573,151.52193462791402,147.91820009450953,149.0480194091797,259900
2024-09-18,149.75902346233676,151.44401803275537,148.73635728036453,149.0869903564453,214200
2024-09-19,150.98623601631084,154.677610065008,150.98623601631084,152.8173065185547,412400
2024-09-20,152.24267408275566,152.24267408275566,150.46029050724783,151.85308837890625,663300
2024-09-23,152.10629117339244,152.8270409482074,150.7135084054571,151.90176391601562,315800
2024-09-24,152.11603410552289,152.99262412844,151.96994319924016,152.55433654785156,246200
2024-09-25,153.2068961113986,153.7620564003903,151.8140984456662,153.05105590820312,284100
2024-09-26,153.8302663844023,154.92111825576467,153.59650604264948,154.25881958007812,371600
2024-09-27,154.55100141706893,157.3463316298126,154.1419319653425,155.72952270507812,354300
2024-09-30,155.14510798319304,156.24570900619995,154.7944749495995,156.02169799804688,289800
2024-10-01,156.36259442762125,156.36259442762125,154.9113751149142,155.80743408203125,192200
2024-10-02,155.70028846125726,155.94378321896212,153.84973424739667,154.61917114257812,186900
2024-10-03,153.87898296337445,156.28471283580325,152.56410506616265,154.80426025390625,367000
2024-10-04,155.77820432469008,157.26839101232096,155.18407653760102,156.40155029296875,350500
2024-10-07,155.24251230852914,155.486007058675,153.89841653196711,154.56072998046875,223300
2024-10-08,154.16140851662,154.88215839036292,153.0121203289736,154.541259765625,205900
2024-10-09,154.2295709430776,155.88533216711275,154.00554508664416,155.54443359375,152600
2024-10-10,153.93739633476548,155.23279029262568,153.93739633476548,155.0769500732422,168500
2024-10-11,156.75218568056042,157.70668095780067,156.17754162622376,157.3463134765625,194400
2024-10-14,160.696818031185,163.39472945404907,159.2066311881111,162.83956909179688,469700
2024-10-15,162.96617430440529,165.2452816100452,162.15776994657773,164.290771484375,397300
2024-10-16,164.31023937535176,164.79722883103554,161.60257919068917,161.71945190429688,330000
2024-10-17,162.63500734074424,163.94015048027507,162.18698532860228,163.52133178710938,238200
2024-10-18,164.69985199950776,164.69985199950776,163.41419260808226,164.24208068847656,171500
2024-10-21,164.0862369925915,164.10572073312753,161.9727044274876,162.00192260742188,217900
2024-10-22,161.40781358966652,162.0408940440798,160.52148906409494,161.49546813964844,228500
2024-10-23,162.17724687078498,163.6089972685699,161.83636311905678,163.28758239746094,318100
2024-10-24,164.38138841449273,164.3911490539813,162.26215240803288,162.65280151367188,547300
2024-10-25,164.9673259462908,165.8755720020447,160.75818090850115,164.9575653076172,518900
2024-10-28,165.92439581087592,167.3990718969887,164.81107199246878,165.14312744140625,350000
2024-10-29,165.07475181943673,165.52399452591067,163.7172779631245,164.75247192382812,338100
2024-10-30,164.41067173516717,166.21737340703038,164.18604292971634,165.0747528076172,290300
2024-10-31,165.1333689439496,166.29552588082868,163.9321545452615,163.98098754882812,329900
2024-11-01,164.16653293752452,166.98890749293048,163.69775401702358,165.4458770751953,316300
2024-11-04,165.66072177477935,166.5787284860389,164.24463934900223,164.32276916503906,191800
2024-11-05,163.81495853194275,166.37364684373878,163.81495853194275,166.32481384277344,206200
2024-11-06,171.05156441416634,171.05156441416634,168.1120023975292,169.10813903808594,264100
2024-11-07,170.12376575088302,171.3542916404713,169.4792059898356,170.62184143066406,412300
2024-11-08,170.61208381104976,173.67860841546667,170.4070060757364,171.64727783203125,309200
2024-11-11,172.1942029189047,173.8641813863164,171.7840176058394,172.02816772460938,189100
2024-11-12,172.51646680557812,173.09267240733516,170.85624898942092,171.5886993408203,179800
2024-11-13,171.39337158203125,172.26254534897026,170.95390437883552,171.39337158203125,168400
2024-11-14,171.05155682058597,171.67658049046,169.8405818424337,170.02613830566406,198200
2024-11-15,168.92259010604147,169.6940979462343,162.28170370883174,162.59422302246094,620500
2024-11-18,162.4965371683572,163.89308346527008,160.4847427631967,162.78952026367188,384400
2024-11-19,162.52584959099735,163.74660018722383,162.31099629392224,162.99461364746094,287600
2024-11-20,163.09226951003035,164.9868767017905,161.773852987427,164.7817840576172,221800
2024-11-21,164.74271987680694,166.24667789967594,163.81495249958823,165.90487670898438,205100
2024-11-22,166.1978542572136,168.04364337816776,166.1978542572136,167.49673461914062,241600
2024-11-25,168.0241100492806,169.94801412387145,167.7213662946961,168.4635772705078,270100
2024-11-26,168.81511682903937,168.81511682903937,167.15489941371368,168.01429748535156,140300
2024-11-27,168.6296004490124,169.81129356804752,167.50651587532045,167.7115936279297,167200
2024-11-29,168.5514742252474,169.43042360328997,168.06317398247072,168.91282653808594,117300
2024-12-02,168.93235208368242,169.05931491856694,166.84242758790214,168.71749877929688,170900
2024-12-03,169.39133917889114,169.39133917889114,167.0865616010066,168.36590576171875,160100
2024-12-04,167.86783536473908,168.84443572520686,167.02795845866723,168.55145263671875,173400
2024-12-05,167.98505442378325,168.40500040714633,166.5396897893013,167.0963592529297,245000
2024-12-06,167.58460837539053,168.61002671353125,166.8521581900116,167.14512634277344,209200
2024-12-09,167.5455809247015,169.41089147314173,166.24670045963933,166.79359436035156,301700
2024-12-10,166.72521015388972,167.3599944100707,164.25441250187913,166.9107666015625,287000
2024-12-11,167.85808411107303,170.02613822467129,167.73112128855698,168.27801513671875,418600
2024-12-12,167.65298456324717,168.5612306607672,166.78381082569527,167.62368774414062,178300
2024-12-13,166.9107848371899,166.99867530040407,165.8462939336225,166.21739196777344,153200
2024-12-16,166.15878101655767,166.93028872730167,163.66844717273165,163.70751953125,236100
2024-12-17,162.99458751218418,163.00436305250057,159.02959259568405,159.27374267578125,511900
2024-12-18,159.85971564038562,160.57262973216018,154.21496674015316,154.50794982910156,468600
2024-12-19,154.80093483209816,157.78934478191135,154.5274878931726,155.1525115966797,404700
2024-12-20,155.00602554523715,156.04121964416362,153.78527497542004,154.47865295410156,730200
2024-12-23,153.49226783435589,155.18178218605982,153.2871901156991,154.81068420410156,194900
2024-12-24,155.0645922806042,155.68961586782322,154.22471543824068,155.6212615966797,100500
2024-12-26,154.7130496409685,155.89474280440862,154.7130496409685,155.13299560546875,164500
2024-12-27,154.12707581536193,155.84588708263334,153.92198318319998,154.4493408203125,145000
2024-12-30,153.32624728896786,153.80478680118333,151.37304668656063,153.06256103515625,221700
2024-12-31,153.59970058644706,154.54700411025723,152.52543424962974,153.42391967773438,317100
2025-01-02,153.96106053123728,154.4103033111957,149.85934147374135,150.552734375,239400
2025-01-03,150.43553065073638,152.07622719806142,149.29290988290282,151.8613739013672,250700
2025-01-06,150.39645072499704,151.0214743397327,147.89635626605445,149.3417205810547,369000
2025-01-07,152.27153842764793,152.40826189282907,149.0292327240345,149.8397979736328,361200
2025-01-08,149.31242715408106,150.65036486716312,148.53114389248458,150.54293823242188,228600
2025-01-10,149.1463999140004,150.68943018558076,149.0096764672395,149.85931396484375,350800
2025-01-13,149.35150422383165,151.08009124557495,149.35150422383165,150.28904724121094,349300
2025-01-14,151.18748931990888,151.81251291278505,149.88860913904762,150.99217224121094,196900
2025-01-15,152.46686153360938,153.2481448947014,150.56249358589434,151.9199676513672,206100
2025-01-16,152.24223989964935,153.49228725350105,151.67580986403843,152.7500762939453,346300
2025-01-17,153.29697420180517,154.25403847264764,152.03715127326387,152.43756103515625,231900
2025-01-21,153.05282926731795,156.5099884289423,153.05282926731795,156.09005737304688,270900
2025-01-22,155.6115107453754,156.98852094407073,154.6349103040437,155.34783935546875,280000
2025-01-23,154.7521187567618,156.07052046490324,154.0391896764672,155.8849639892578,149800
2025-01-24,155.91424200320077,156.71506145375167,153.54111027377883,154.59584045410156,329600
2025-01-27,154.54699783386062,155.20131824817142,152.98443138953712,154.75209045410156,317000
2025-01-28,153.88292658532947,156.59787440646915,153.88292658532947,154.71302795410156,204300
2025-01-29,155.0645907175658,155.10366307360064,152.95513054381306,153.4336700439453,265800
2025-01-30,154.12706586283983,154.96692781170574,152.9160761312112,154.4298095703125,274200
2025-01-31,154.205198107046,155.66033807623802,153.0918742405619,153.47274780273438,834100
2025-02-03,150.9629044447037,153.08212570452554,150.53319784792123,152.33013916015625,364600
2025-02-04,152.43754527468874,154.7520982407055,152.43754527468874,154.00987243652344,302400
2025-02-05,155.01866189479728,156.3702319730873,154.52896432375118,155.05784606933594,262600
2025-02-06,156.5465285972017,156.5465285972017,152.16863076212493,153.22637939453125,446600
2025-02-07,154.37226642227148,154.64649588233073,139.11328743464438,140.22979736328125,1221500
2025-02-10,141.2875312819042,141.62053697254157,137.99676315893876,140.32772827148438,621900
2025-02-11,139.33856189367694,140.12208105720353,137.36996794046337,139.35813903808594,377300
2025-02-12,138.06531924654766,140.53339891858562,137.0467400415367,138.7802734375,423500
2025-02-13,139.8086702399115,140.81744613961186,138.54525695828178,139.82826232910156,665900
2025-02-14,140.72928446288225,142.3158997444021,139.7792700193002,141.80661010742188,512800
2025-02-18,141.80661410840983,144.2551019301506,140.93495304164546,143.87313842773438,489600
2025-02-19,143.12878909814165,144.45097836650277,142.60971092774975,144.01023864746094,331000
2025-02-20,143.94170202111488,144.3824268363581,142.91333415595835,143.6576690673828,283100
2025-02-21,144.0004768600077,144.3530597341893,142.20818182828341,143.32469177246094,451900
2025-02-24,143.16798872554835,144.2551180375646,141.38549716336897,142.6097412109375,353300
2025-02-25,142.8741632870377,145.27367831527678,142.7174564829414,144.6664581298828,336700
2025-02-26,143.62828832707837,146.10615678438293,143.59890766903789,143.61849975585938,735600
2025-02-27,143.21694635144803,144.14736874046284,142.3648773665291,142.6293182373047,262800
2025-02-28,143.14838730085012,143.9221028321513,141.64991403633834,143.72622680664062,348700
2025-03-03,143.9417092483485,145.7731734330009,142.6880846270143,143.5695343017578,394100
2025-03-04,142.54118579310997,144.90153205949625,142.1494336497469,142.93295288085938,490100
2025-03-05,143.0406700510276,145.78297956351986,143.0406700510276,145.3814239501953,445100
2025-03-06,144.51955819613613,148.3783778054115,144.0298605796166,148.03558349609375,471700
2025-03-07,147.408772401794,150.20005481751275,146.1061749374176,149.6320037841797,480200
2025-03-10,148.93662196596816,150.82684736023063,147.14432711634848,147.467529296875,391100
2025-03-11,147.24224245056683,147.45771054865955,144.23550753617076,144.8427276611328,304000
2025-03-12,145.18552675241813,145.18552675241813,142.56074026251753,143.02105712890625,299700
2025-03-13,143.39324790721705,144.16696350239528,140.79784178568258,141.77723693847656,238400
2025-03-14,142.23756435683154,143.86336401714982,141.561779260411,143.6381072998047,223600
2025-03-17,143.49116498279625,144.9504690034165,142.85456417100727,144.79376220703125,225200
2025-03-18,144.35305965504074,144.49017438690367,142.77623276642447,143.2855224609375,219900
2025-03-19,143.32466483055046,144.42159742424096,142.47259593827573,143.95147705078125,279600
2025-03-20,143.1190055816075,144.38241863949617,140.76844845978337,142.20816040039062,332800
2025-03-21,141.03288741960213,142.46281077035695,139.4266801328764,141.83599853515625,601900
2025-03-24,142.7468386396778,145.1267616063011,141.92415032610805,144.94068908691406,463800
2025-03-25,145.43039772394542,146.15514060303397,142.92313347424803,144.17677307128906,325200
2025-03-26,144.02003557814166,145.63603132614415,143.28548933916207,145.49891662597656,630400
2025-03-27,145.22471455574868,146.80154137661276,144.0004705937233,146.27267456054688,312700
2025-03-28,146.2138845778836,146.90926165859608,142.7566211490686,143.9025115966797,239800
2025-03-31,143.55973295769965,146.01800923430915,143.08962750262015,145.32264709472656,372500
2025-04-01,145.8123486528671,146.93864705079392,144.34325598893645,146.02781677246094,240000
2025-04-02,144.95049129591143,148.01600308998087,144.95049129591143,147.42835998535156,247600
2025-04-03,143.73601082079833,146.95822887417515,143.4422042640377,145.60665893554688,352900
2025-04-04,142.2277708498692,144.91131905351403,137.15449598879215,137.29161071777344,531600
2025-04-07,133.53071403995318,139.19161608543078,128.1538449204054,131.8755340576172,629900
2025-04-08,134.5493112573588,136.43953673434598,128.57499483049722,130.9059600830078,473800
2025-04-09,130.43584131939255,141.44424838924863,128.6141806532637,140.78805541992188,491800
2025-04-10,137.11532993446937,140.4158870228316,134.7354067381973,137.8596649169922,309000
2025-04-11,137.96737957378522,141.7282680233526,136.86067330008663,141.140625,203000
2025-04-14,142.79581425798335,143.38344237476502,140.82722046414764,142.7860107421875,249300
2025-04-15,143.0896488919898,143.52057023933776,140.807656215774,140.97415161132812,250700
2025-04-16,141.09164958012386,142.8153944455794,139.63236050898016,142.0122833251953,307700
2025-04-17,142.40405194984112,142.75663480933545,137.8107011490633,140.8664093017578,390600
2025-04-21,140.34734719656797,141.0818936596229,138.19268056048412,139.64218139648438,291600
2025-04-22,141.52259151328374,143.79479531157602,140.631338388382,143.0112762451172,217800
2025-04-23,144.823151790697,146.24328667195422,144.1865509396658,144.99945068359375,537000
2025-04-24,144.88192409202932,148.86806971088194,142.4628317080614,148.33920288085938,424500
2025-04-25,147.74177325388501,149.8474669754594,144.52935816394884,145.9886474609375,220500
2025-04-28,146.71339348881767,147.91804531450325,145.22470870652703,146.61544799804688,235200
2025-04-29,146.67419752698908,148.84845573678555,145.93965123839249,147.2030792236328,359900
2025-04-30,145.9984330116698,146.89947469973708,144.17675754933848,146.86029052734375,556200
2025-05-01,145.8288159699916,147.87209121737254,144.36513448698346,145.6618194580078,445300
2025-05-02,150.28867188742916,150.29848992197137,145.18047592473235,149.31614685058594,431600
2025-05-05,148.7562082163406,150.51461075676426,148.21593150363898,148.80532836914062,267600
2025-05-06,147.59705042912566,149.355437978684,146.78170385931236,148.25521850585938,312000
2025-05-07,149.19827245283236,150.44583737765655,147.9605105733144,148.7169189453125,318400
2025-05-08,149.1098443499113,151.84077180787722,148.5695676661293,150.65213012695312,302500
2025-05-09,151.1924328459138,151.5755460622504,150.23955882257493,150.61285400390625,231600
2025-05-12,153.03923920333585,153.82511675438303,150.98614553061785,152.77401733398438,352500
2025-05-13,153.55005471787953,153.55005471787953,150.49496693494288,150.9272003173828,339400
2025-05-14,150.90754450151144,150.90754450151144,148.3043412429943,149.7876739501953,350100
2025-05-15,149.65998239804614,152.7347062134107,149.65998239804614,152.2140655517578,278100
2025-05-16,152.4399964689241,154.3752135929202,151.86041763202704,154.23768615722656,278600
2025-05-19,153.5991717253283,155.5442069170815,153.5500515711728,155.28880310058594,185400
2025-05-20,157.4303150085624,157.4303150085624,155.12181749431372,155.73086547851562,388100
2025-05-21,154.09034056579173,154.8663850260189,153.07852836340334,153.6875762939453,319800
2025-05-22,153.5991755437167,154.4832783830283,152.81329802579143,153.88404846191406,278900
2025-05-23,152.3810559407016,153.4223372220158,151.53624028030902,153.18658447265625,260500
2025-05-27,154.25733338201647,155.642440728808,153.9233403306864,155.3673858642578,352800
2025-05-28,155.36739421063615,156.03538034918074,154.4832763933447,154.6208038330078,364400
2025-05-29,155.04320652313712,155.8683710937722,154.05104543149486,155.5343780517578,232100
2025-05-30,155.44597065814978,155.9764293133438,153.77597547059216,155.60313415527344,335100
2025-06-02,154.75831599595244,156.26131463804512,152.51857506289332,154.1394500732422,349600
2025-06-03,153.4223415376803,154.66010346409962,153.24552697068694,153.5009307861328,397800
2025-06-04,153.72689030243944,153.75635939881812,147.63635056847724,147.75424194335938,831900
2025-06-05,148.90357998413,150.632498572694,146.41825295522108,149.79751586914062,482400
2025-06-06,151.64427796565943,151.75233629085326,149.5224285635975,150.60299682617188,264700
2025-06-09,150.01363456854594,150.4753220758684,148.68746527135272,148.92323303222656,388400
2025-06-10,149.47334506320036,150.2985097546009,148.1962959040132,149.83680725097656,323500
2025-06-11,150.29851181607012,150.87809071516745,148.9232373115395,149.23757934570312,380800
2025-06-12,148.73658814675593,151.8899014382214,148.73658814675593,151.6246795654297,337200
2025-06-13,150.29848970697998,151.00577791651503,148.0685667411024,148.49098205566406,361200
2025-06-16,148.5695910137806,150.20026933440568,148.45169963697123,149.0116424560547,346200
2025-06-17,147.9998142251002,148.58921108822153,146.49683048956007,146.81117248535156,379700
2025-06-18,146.4869866848808,148.0685595503163,146.4869866848808,147.05674743652344,383200
2025-06-20,147.63631565892786,148.10785106822402,146.35928181283484,147.64614868164062,570500
2025-06-23,146.85047583401547,151.2218996436103,146.85047583401547,151.0745391845703,356500
2025-06-24,151.84078941040858,151.84078941040858,150.4753180284472,151.15313720703125,246600
2025-06-25,151.14329517579995,151.80146318967252,150.0725448990236,151.21205139160156,264700
2025-06-26,151.80147000378724,152.83293320202972,150.41636270870066,151.75234985351562,658200
2025-06-27,151.92917357890042,153.35356794604172,151.50675828997822,153.06869506835938,643100
2025-06-30,153.27500695161754,153.73670945071478,151.88008141858438,153.66793823242188,315500
2025-07-01,153.66793021902077,156.9784367941011,153.20624273336693,156.20237731933594,338300
2025-07-02,156.21222388055548,157.6955567545511,155.84874669443275,157.48927307128906,293500
2025-07-03,157.76431481113727,158.51089020387988,156.99808835850575,158.196533203125,235100
2025-07-07,158.1081326731942,159.50305819756994,157.71520139482857,158.1179656982422,313900
2025-07-08,158.05899691367227,159.70934109650693,157.02754866243734,157.22401428222656,342700
2025-07-09,157.10614887979318,157.1847381385685,155.3084739217681,156.90968322753906,252800
2025-07-10,156.37919368056006,157.52853325880866,155.5343780517578,155.5343780517578,361600
2025-07-11,155.7603190354981,155.7603190354981,153.86440405350666,155.11196899414062,292000
2025-07-14,154.3654022940558,156.13362296539574,153.92335087356255,154.77798461914062,276600
2025-07-15,154.95482457616103,155.21022841662352,151.3496267654611,151.4380340576172,254200
2025-07-16,151.20223382561701,152.86239590560155,150.8387717096552,152.24351501464844,261900
2025-07-17,152.00776275022704,153.64827377805926,151.78181306560424,153.2749786376953,397700
2025-07-18,154.08052265083427,154.43416676966828,152.18459265589,153.6188201904297,243100
2025-07-21,153.65812006565358,153.90370586328876,152.49896229571195,152.7052459716797,205900
2025-07-22,153.3535904509508,156.54620570312537,152.48912367837994,156.35955810546875,449900
2025-07-23,157.24368095923748,158.99225063096037,156.33009400189493,158.80560302734375,450500
2025-07-24,158.559320268112,161.82979531304568,157.40675735764995,159.406494140625,431900
2025-07-25,159.63305506440543,160.65753702914088,158.3819926877325,158.5888671875,296300
2025-07-28,158.79573614749467,159.56410142477418,155.80108366056007,156.33302307128906,308500
2025-07-29,156.67779828906407,157.21959813532774,154.8750906357904,156.45123291015625,388200
2025-07-30,156.4315385130725,156.55958937255576,152.60940298667225,154.45150756835938,580700
2025-07-31,153.456563501654,155.0031544025075,152.86550639902828,154.79627990722656,679700
2025-08-01,154.6288158726098,155.76165777291718,138.9856590147076,139.24179077148438,1012300
2025-08-04,140.98538123418317,140.98538123418317,135.03547356824112,137.05490112304688,839000
2025-08-05,137.2617519084508,138.9659599251385,135.63636753338238,138.12863159179688,540800
2025-08-06,138.21731427393004,138.6605996470306,135.4984842918658,136.4737091064453,515300
2025-08-07,137.71491162131494,139.37970798596095,136.83818640949156,138.39462280273438,564000
2025-08-08,138.59162361799454,139.9313399406848,138.48326365692378,138.65072631835938,428700
2025-08-11,139.222090228796,139.5077583171329,137.12385398637957,137.7838592529297,349500
2025-08-12,138.12862654943748,138.98564573069308,137.15338694127408,137.399658203125,286100
2025-08-13,137.60654859738395,139.33044762978915,137.17310872138614,139.32058715820312,729900
2025-08-14,138.09910131689176,138.09910131689176,134.40503169053025,136.2766876220703,875800
2025-08-15,136.29638497225332,136.8775816161289,135.81368782683418,136.65101623535156,770500
2025-08-18,136.81847442171076,137.4883401327873,135.3014499206359,135.83338928222656,529500
2025-08-19,136.20773671589527,138.4241784468644,136.20773671589527,137.50804138183594,333100
2025-08-20,137.82326302031893,139.1432734762502,137.18294867232404,139.07431030273438,519200
2025-08-21,138.53254347475354,139.78359091939785,138.14836082862038,138.54238891601562,270400
2025-08-22,139.15312448451428,141.19225798353852,139.08417633944555,139.32058715820312,356500
2025-08-25,138.8674588166062,139.4979127296023,136.88744301904194,137.47848510742188,245800
2025-08-26,136.9957973337368,138.06953652648775,135.95159446141804,137.62625122070312,442900
2025-08-27,137.01548945470773,138.47342629437426,136.95638675089546,137.3602752685547,729100
2025-08-28,138.07938928608468,138.07938928608468,135.35069910089788,136.8184814453125,320800
2025-08-29,137.09429553325865,137.7838521169858,136.2865335440943,137.19281005859375,370700
2025-09-02,135.37040364310914,136.46384879424832,134.13904716800675,134.37547302246094,310600
2025-09-03,134.0504057475134,134.1489052560839,132.4348665011149,133.20323181152344,382300
2025-09-04,134.3163671782823,136.41458834161003,133.0258929963137,136.3948974609375,401800
2025-09-05,136.94654859153968,138.7197049562119,135.5772807659998,136.55250549316406,440800
2025-09-08,136.52295752982062,137.91193130257207,135.62652636886406,136.23728942871094,616100
2025-09-09,136.19786500295976,137.39967006705987,133.08500740809663,135.00592041015625,637100
2025-09-10,134.09967481585545,135.409840147903,132.8387667580311,134.21788024902344,685100
2025-09-11,134.71040519706986,136.2175843964125,133.84352538471833,135.05519104003906,477500
2025-09-12,134.58232620679007,135.00592063066784,133.20321303157323,133.2130584716797,261300
2025-09-15,133.9420357302436,134.13904976383114,132.62202517087903,132.8387451171875,298000
2025-09-16,132.77962562814162,133.40023410540573,132.0999294759084,133.19337463378906,474800
2025-09-17,133.4002434882413,135.02564317844585,132.18859283278562,132.6417236328125,377400
2025-09-18,132.88798558145595,133.48888814617573,132.07037810452255,132.49395751953125,254800
2025-09-19,132.65158018177598,133.0850200863436,131.35126046807318,132.4348602294922,877200
2025-09-22,132.11960688188879,132.92738386712793,130.69123651388878,130.74049377441406,402100
2025-09-23,131.0261738005905,131.95215627068484,130.00169183165633,130.0509490966797,319700
2025-09-24,130.0312388605038,131.32169799268698,129.38107905871175,129.5386962890625,353300
2025-09-25,129.53870141670419,130.54349251095573,128.32705085173455,128.8688507080078,388700
2025-09-26,129.37123644965243,130.4548211118124,129.00675974879576,130.31690979003906,274400
2025-09-29,130.4252615354418,130.70108416159653,129.40077964275358,130.29721069335938,540600
2025-09-30,129.74557555443596,131.76498814664785,129.74557555443596,131.66648864746094,310400
2025-10-01,131.34141139667054,132.35604794922318,130.33662028487404,132.1393280029297,310100
2025-10-02,131.66648573117217,132.38559368725765,130.97692912730892,131.19363403320312,398500
2025-10-03,130.49423360821496,131.58767874762543,130.45482178395852,131.23304748535156,402000
2025-10-06,130.90798617122863,131.2133602121639,129.45006412198484,129.91305541992188,447100
2025-10-07,130.13962210171118,130.53365021684988,127.873922861641,128.6422882080078,438800
2025-10-08,129.2234697553329,130.04109227782575,128.31719317203184,129.64706420898438,361300
2025-10-09,129.73572663806536,130.8587232410274,128.2580987377885,128.6619873046875,554200
2025-10-10,128.98704858156654,130.04108184834632,127.95270619480443,128.97718811035156,426000
2025-10-13,129.03630601031335,130.37602238234368,128.2186835523413,128.2777862548828,311400
2025-10-14,128.10048555861533,129.10527677147402,127.11540026045824,127.86407470703125,337400
2025-10-15,127.86406447402499,128.44526114593418,125.95299674355027,126.18942260742188,438300
2025-10-16,126.5243419047704,127.56852978216413,125.94313774513942,127.23360443115234,352700
2025-10-17,127.23360344544018,128.15958590499872,126.92822944945955,127.4109115600586,339700
2025-10-20,127.67688307805489,128.1497197271898,126.11060134384137,128.06106567382812,240500
2025-10-21,128.66197064438,129.80467301345007,127.19418837559832,128.62257385253906,311600
2025-10-22,128.70137488096933,130.13960588126338,128.04136960320932,128.12017822265625,357500
2025-10-23,128.27838836608,130.0482160538345,128.19928781482736,129.29678344726562,378600
2025-10-24,129.27699821696652,129.41542040316887,127.09188897025071,127.42807006835938,489300
2025-10-27,127.68513804202082,128.43657062662018,127.00290900843953,127.32919311523438,521700
2025-10-28,127.29953156353623,127.65547648827675,126.03395296154486,126.6568603515625,413500
2025-10-29,125.84608767724626,126.06361040803851,122.02957306455488,122.9095458984375,651100
2025-10-30,122.6425973459498,124.10591981246533,121.65386309537952,122.95899200439453,702600
2025-10-31,113.99117408852003,116.76951495369767,102.06704129042897,114.70306396484375,2758200
2025-11-03,114.78215353846566,114.78215353846566,107.07003104374891,111.84561920166016,1661000
2025-11-04,113.07164922422088,114.69317278774453,111.26226373964292,112.8936767578125,1029100
2025-11-05,113.04198468525121,114.73271928879292,111.49955417930168,114.26801300048828,896900
2025-11-06,113.72420198995826,115.64234871180304,112.517952627641,114.84147644042969,880300
2025-11-07,114.92057976181373,115.60280123250854,113.39792818360942,114.91069030761719,697200
2025-11-10,114.68328006091402,115.45449154553131,112.71570107535919,115.06888580322266,514000
2025-11-11,115.64235215314066,118.16362740289492,115.64235215314066,116.93759155273438,484800
2025-11-12,117.0067994446968,118.32181771681981,116.58165098825971,116.8288345336914,547500
2025-11-13,116.96726664292429,120.50692958090833,116.96726664292429,118.84585571289062,679400
2025-11-14,118.42069332802943,119.33033453666947,117.05624283023447,117.27376556396484,521200
2025-11-17,117.1551218108406,118.14385608312521,116.24548809076526,117.99554443359375,820200
2025-11-18,118.31193671929118,118.75686408712447,116.72995598156568,117.96587371826172,817400
2025-11-19,118.16362983624596,118.16362983624596,116.38390520642318,116.67063903808594,598900
2025-11-20,116.67063483535937,118.26249749040201,116.04773500908134,117.24410247802734,507400
2025-11-21,116.79916971414367,120.86286792776397,116.79916971414367,120.1509780883789,509100
2025-11-24,119.48852930748254,121.02107037008182,119.08315219875638,120.10154724121094,740000
2025-11-25,121.0309595133857,122.68214385066395,121.0309595133857,122.04935455322266,543600
2025-11-26,121.63407548431789,123.11717675407199,121.63407548431789,122.41517639160156,538000
2025-11-28,122.23721179455744,124.65961521692697,122.23721179455744,123.34459686279297,315700
2025-12-01,123.47312464549341,123.55222519221778,121.64396787729149,121.89115142822266,536800
2025-12-02,122.37563109798752,122.46462110038372,119.4390968008952,120.2300796508789,325400
2025-12-03,120.08176988930819,122.86011822072538,120.04222715811682,120.68489837646484,543100
2025-12-04,120.82332005860296,122.6821452414219,120.55636513524256,120.64534759521484,708000
2025-12-05,120.61568357957054,122.11856379579517,119.26112254625717,120.53659057617188,537000
2025-12-08,119.55773823925648,120.72444490270962,117.95599365521366,118.71731567382812,496600
2025-12-09,118.25260671307173,118.49979025868578,114.06037589162156,114.41632080078125,640300
2025-12-10,114.86124902547321,116.47289058274676,113.83296456280685,115.84998321533203,734700
2025-12-11,116.6310870053096,117.33308739219939,115.84010415999195,116.68052673339844,389700
2025-12-12,117.18477675810965,120.26963024864754,116.32458281214376,120.10154724121094,656400
2025-12-15,120.11143594513233,121.08039125301917,119.12270172858626,120.95185852050781,588600
2025-12-16,121.2880193092629,122.45472593627359,118.17350515259987,121.44622039794922,644800
2025-12-17,120.73433285185864,123.19627887906455,118.72720364799784,122.2372055053711,567300
2025-12-18,122.2767604710972,122.72169540087228,120.65523693661119,121.23859405517578,457100
2025-12-19,121.95047437935206,122.92932668285609,119.89391294648267,120.02244567871094,1300400
2025-12-22,120.02244905131522,122.30642273678362,119.70605439556444,121.35723876953125,527800
2025-12-23,121.48577799610219,121.64397155088497,119.95323691666961,120.81343841552734,311700
2025-12-24,121.1495961120519,121.78238537460243,120.38827412360435,121.36711883544922,198000
2025-12-26,120.99141254975284,122.08890816765887,120.34873378036154,121.86149597167969,306000
2025-12-29,121.90103810595791,122.90954365167185,120.9419647432383,121.82193756103516,400200
2025-12-30,121.41656795360201,122.89966931682952,121.04084411378047,121.35723876953125,289800
2025-12-31,120.15097596397585,121.94058998507745,119.98289296138277,120.58602142333984,314300
2026-01-02,120.36849451795845,121.61430167163682,119.41931062963688,121.15948486328125,295100
2026-01-05,120.3882753233874,123.17650539661395,120.3882753233874,121.61430358886719,435700
2026-01-06,120.84309994356978,121.4659997987374,118.75687009500949,119.20179748535156,777200
2026-01-07,119.31055741898699,120.57613602320409,116.28503309681528,119.0831527709961,478500
2026-01-08,118.56900865138992,121.98014631699301,118.17351344536358,121.06062316894531,330000
2026-01-09,120.70467850674399,123.5621198728979,120.09166055886544,122.4547348022461,429100
2026-01-12,122.60303947816963,123.88839694168902,121.59453392415777,123.72030639648438,477300
2026-01-13,123.64121411549613,124.02681984811237,121.15948917361368,122.10867309570312,351900
2026-01-14,122.71180688445504,125.72744932780128,122.71180688445504,125.42093658447266,611700
2026-01-15,125.70766789113175,125.78676843900955,123.11718152395939,123.7005386352539,381000
2026-01-16,122.60304567683241,123.78952374665012,121.85160554277793,123.30504608154297,363400
2026-01-20,123.49290649216461,124.1158063396922,122.0493554255934,122.4250717163086,275100
2026-01-21,122.90954323158518,124.2047901340779,122.50416614126715,123.6016616821289,421000
2026-01-22,123.64121667891544,124.98589581561515,122.66236437418617,123.0677490234375,369700
2026-01-23,122.93921055756546,124.85735737798285,122.4745118058816,124.58051300048828,429500
2026-01-26,124.99577817123766,125.55935637440064,123.69064930373163,124.92656707763672,315400
2026-01-27,123.54233481410213,124.87713201390274,122.77112334791536,123.33470153808594,303100
2026-01-28,122.80079414026893,123.66099567657822,121.86149959484645,122.30642700195312,347800
2026-01-29,122.88978028418853,123.86862507511535,121.20892754069328,122.4547348022461,386000
2026-01-30,121.52533188143772,123.60167232496788,121.27814831569736,123.54234313964844,512700
2026-02-02,122.80078342815366,124.49152553193812,122.80078342815366,123.42369079589844,489100
2026-02-03,122.51406220907022,126.48877049938638,122.29653947125486,123.22594451904297,658700
2026-02-04,124.77433039015442,129.44927260782487,123.77184577350829,128.26812744140625,589400
2026-02-05,126.71975064755804,128.1192596554473,121.05225107397254,123.05722045898438,2144200
2026-02-06,126.58078326238557,134.97782150042084,126.58078326238557,133.31031799316406,1045700
2026-02-09,132.5857587104382,138.531180271334,132.2582131007177,137.43936157226562,1043400
2026-02-10,136.78427392403074,139.88104683101494,136.78427392403074,139.126708984375,622100
2026-02-11,137.99519392074043,139.50388475135443,137.56840169460276,138.9678955078125,584300
2026-02-12,139.11678651599092,140.94308767923593,138.3525134196047,139.46417236328125,572700
2026-02-13,139.46418324151318,141.8661694437224,139.3649366253535,141.51878356933594,471900
2026-02-17,138.2234773285034,142.55102629654255,138.2234773285034,140.59568786621094,614700
2026-02-18,140.41703714664675,142.04482998774162,139.791721402891,140.66517639160156,582000
2026-02-19,140.5956812663536,142.25326464590432,139.98030082414553,142.09445190429688,525500
2026-02-20,142.0547550361601,144.0597244456509,140.94309602664507,143.97039794921875,664500
2026-02-23,142.42200863639354,145.15154037209857,142.06468751245615,144.63540649414062,513500
2026-02-24,144.98279666295065,145.8165408414096,142.77931908758302,143.06715393066406,429800
2026-02-25,141.35004724560304,142.59074350649368,139.38477346379526,141.61802673339844,348900
2026-02-26,142.45176871915783,142.84878541602816,139.95052112226952,140.73463439941406,331300
2026-02-27,140.47658357934912,142.9381205686862,139.9505296087492,142.64036560058594,344600
2026-03-02,141.93563886113196,142.2830398395081,140.56590547180699,141.60809326171875,335000
2026-03-03,139.5931967078321,140.26814325067423,135.90088396317486,138.71974182128906,347300
2026-03-04,138.302888395737,138.47162126788456,134.9976717766612,136.02000427246094,389000
2026-03-05,134.9877396254558,135.32520533966746,133.40957777498073,133.72718811035156,452300
2026-03-06,133.0026313554941,133.0026313554941,130.02496050425168,131.096923828125,398500
2026-03-09,129.99519404049997,132.98278521657096,126.5807954705799,132.75450134277344,545700
2026-03-10,132.3574660154593,133.1316591702968,130.42196798314936,131.14654541015625,503100
2026-03-11,130.8190202738326,132.28800044532838,129.0721101988683,131.03738403320312,563800
2026-03-12,130.29295237048808,131.8016279987067,127.68252279954663,127.90088653564453,620600
2026-03-13,129.18127925269795,129.18127925269795,126.10436183607526,127.69244384765625,660600
2026-03-16,128.5162697582332,130.43191254892886,125.06217580985977,128.0894775390625,370700
2026-03-17,129.00262050471235,130.04480827067758,127.2855013216824,128.53611755371094,276700
2026-03-18,123.45423058912087,125.63786042046195,120.51626292882625,123.29542541503906,910500
2026-03-19,122.0944332187195,123.8909588849741,120.54603921873606,123.04728698730469,518500
2026-03-20,123.33512999241371,123.33512999241371,119.41452545613383,120.15894317626953,1481500
2026-03-23,122.5907105268858,125.39964092902298,122.07457667427936,123.21601867675781,455200
2026-03-24,122.24332284607306,124.28798782763778,121.95548040949986,123.2259521484375,405000
2026-03-25,124.50634549167631,125.62793211237509,122.78921864642815,124.88351440429688,337200
2026-03-26,124.28798636131239,126.3922023143744,123.19617519683187,123.76193237304688,442100
2026-03-27,123.01751427118627,123.28550132328671,120.85373975633635,121.08202362060547,381400
2026-03-30,121.64777727824665,123.01751071469691,120.19864504103799,122.44182586669922,562000
2026-03-31,123.46415851677581,126.01502957768723,122.67010992701152,125.08202362060547,557800
2026-04-01,126.39219982096562,127.68252689973865,125.38972274230011,125.80659484863281,380200
2026-04-02,124.2085781211438,126.14406117582702,123.32520302720033,125.07210540771484,297500
2026-04-06,123.66266876079281,125.25076596450165,123.66266876079281,125.07210540771484,461100
2026-04-07,124.38723692091199,126.22346576757812,123.8711106378232,124.67507934570312,376900
2026-04-08,130.4021481364575,131.68254004802253,127.19617800807119,131.03738403320312,645200
2026-04-09,130.24332882387228,131.45424955756675,126.39220287440348,130.42198181152344,424100
2026-04-10,131.2656579543429,131.71230555728022,129.87608426848973,130.521240234375,407400
2026-04-13,129.82646170678544,131.43439923843442,126.63042687940094,131.126708984375,396300
2026-04-14,130.2532453341348,131.73216065356567,129.99518597737963,130.03488159179688,315500
2026-04-15,129.83638260646234,130.05474636457114,127.64284005257605,128.6850128173828,407100
2026-04-16,125.95547520842267,129.35994576168224,125.95547520842267,127.33512115478516,393800
2026-04-17,128.6849981610624,131.31528307681364,128.6849981610624,129.65771484375,401100
2026-04-20,129.59817078840075,131.00759986778516,128.69494031122633,129.945556640625,403600
2026-04-21,129.72718762909471,131.2656538985368,125.74703979492188,125.74703979492188,310200
2026-04-22,126.33265459801167,126.33265459801167,122.04480863207884,123.62297821044922,458900
2026-04-23,124.44679072012924,126.49146323670142,123.51379231359721,124.01007080078125,440800
2026-04-24,123.48401687155638,123.48401687155638,121.65770810014067,123.1564712524414,440900
2026-04-27,123.11676900112164,125.29047121573323,122.62049050993973,123.8016357421875,359700
2026-04-28,125.18128618602746,125.70734016180099,122.79914797388655,124.8338851928711,354300
2026-04-29,124.20857785922294,124.96292327213307,121.87607050853111,121.9852523803711,448400
2026-04-30,122.51130595027864,125.14158341040145,120.97283963229869,122.75944519042969,764800
2026-05-01,126.26316859263083,127.5237125861033,117.0224658192811,118.13412475585938,989400
2026-05-04,117.79666211505766,120.84381172589876,116.58574139374336,119.7023696899414,739600
2026-05-05,120.00014032911528,122.78922301811379,119.92073395333378,121.1217269897461,628600
2026-05-06,122.74597925597982,125.94466800462597,121.24129756714204,122.19791412353516,917000
2026-05-07,122.5068295340525,126.02439054042098,122.13813047351475,124.66918182373047,749700
2026-05-08,124.78875603965518,125.4165335007669,119.9658058031768,120.56369018554688,794900
2026-05-11,120.79288554794945,120.79288554794945,119.0191585502766,119.53732299804688,706100
2026-05-12,120.02559365453983,120.43415267647454,116.72725880994862,117.6340560913086,696600
2026-05-13,117.58423293808002,118.33159035082205,116.01976505817387,117.46465301513672,679500
2026-05-14,118.31166263789773,119.73662439056804,116.62761485678391,117.57426452636719,531000
2026-05-15,117.49455009110837,117.5045093824967,114.06666843041747,114.26596069335938,447000
2026-05-18,115.19268785792543,116.90662874327987,114.76420263658683,115.40194702148438,433100
2026-05-19,115.48166685737739,115.63113986049136,112.05378509001822,113.20970153808594,575800
2026-05-20,113.66807993613209,115.04321484042606,111.15696237122292,114.85388946533203,562600
2026-05-21,116.08951407739181,116.08951407739181,112.37265332877841,115.1030044555664,345600
2026-05-22,115.39198749681162,116.38846404651633,114.30582410432685,115.82047271728516,405800
2026-05-26,115.79056648170686,116.55785764558959,114.96349676302546,115.96993255615234,344500
2026-05-27,116.52796630163347,117.69384200162881,114.32575411191587,114.89374542236328,464000
2026-05-28,114.40547144179769,115.93007936247552,112.95061657623215,115.58131408691406,510100
2026-05-29,114.65458561775299,116.84683851674723,113.34920381323532,115.44180297851562,559600
2026-06-01,114.28589767180515,114.72434218302038,111.63526640610465,111.9840316772461,706800
2026-06-02,111.5555436879482,112.65167394505289,110.84804626905223,111.78473663330078,452400
2026-06-03,111.29646253608045,113.61824699938008,111.29646253608045,112.13349914550781,372600
2026-06-04,114.54497230632394,115.35212345281656,111.14699134502068,112.15343475341797,337600
2026-06-05,112.69152600064275,114.18624078068318,111.58544405772433,112.96057891845703,466300
2026-06-08,111.86445781905672,112.24311616501637,110.55906839000053,111.54558563232422,422200
2026-06-09,112.88085932662787,115.74074968498803,112.27300803930216,115.49163055419922,444400
2026-06-10,115.74074928767203,116.13934141606836,112.97054577921195,114.26596069335938,496800
2026-06-11,114.70441351982215,116.59772043978674,113.85740999319688,116.16923522949219,395200
2026-06-12,117.48458764205596,118.05257897569324,115.96993901734801,117.30522155761719,342600
2026-06-15,118.28175862932584,120.31457162088154,117.14577601676713,117.66394805908203,576100
2026-06-16,118.08246565966249,120.62348378448296,113.36912845320511,120.22489166259766,474700
2026-06-17,121.19147655168894,121.918900150595,119.03908362900873,119.56721496582031,680500
2026-06-18,120.03556323646836,122.1182031608104,118.69032142639777,119.89605712890625,750600
2026-06-22,119.13873446752551,120.58363003359555,118.46113010611298,119.57718658447266,468400
2026-06-23,119.93591657137902,122.14809569936509,118.6604278207416,120.1850357055664,514100
2026-06-24,121.55021059109053,124.60939323702425,121.34094382937874,123.84210205078125,404900
2026-06-25,125.28699706013307,127.68850153642342,124.45991971828299,125.98452758789062,363500
2026-06-26,125.49625757990486,126.67210019838983,124.3204149614199,125.53611755371094,727400
2026-06-29,125.16742108368359,125.60587320209562,123.48337326752176,124.84854888916016,446600
2026-06-30,124.16097333332938,125.86494727656601,123.5033027809896,124.75885772705078,329300
2026-07-01,124.67914609082169,126.39307933521575,123.66273577346423,124.80868530273438,405600
2026-07-02,125.82508774888942,127.77818082996899,124.96812492977865,126.5325927734375,468400
2026-07-06,125.98452783897301,126.6023460237271,123.74245564919634,125.56600952148438,431400
2026-07-07,126.18381913439254,128.26645901687073,125.71548155556971,127.2400894165039,392700
2026-07-08,126.00445175211411,126.26353777363065,122.60647080352626,123.77234649658203,537700
2026-07-09,124.02146439127118,125.03787467960888,123.34386006655016,124.0114974975586,302100
2026-07-10,124.55956853594634,126.53259544666133,123.93179104742975,125.08769989013672,385200
2026-07-13,125.64571994715708,126.72191640641843,123.96167980892794,124.449951171875,391600
2026-07-14,127.96751666781715,128.95403392567474,127.5091383673285,127.82801055908203,739900
2026-07-15,129.25298235497795,130.3092450844948,127.99741214779503,128.65509033203125,466800
2026-07-16,129.56187796196684,134.6040465870392,129.56187796196684,134.27520751953125,579300
2026-07-17,135.351401437915,136.16850424088722,130.24944675099272,132.1427459716797,530800
2026-07-20,131.9135687694055,131.9135687694055,129.2928306127641,129.4522705078125,422900
2026-07-21,130.07008242817932,130.59821378154385,127.46927803301472,128.45579528808594,328800
2026-07-22,129.35261865201468,130.02025611657908,128.02730301458666,128.71487426757812,309900
2026-07-23,128.39600579528673,129.36258923692642,127.71839385448645,128.54547119140625,382800
2026-07-24,129.13338680160044,132.26232242316664,129.13338680160044,131.8936309814453,335900
2026-07-27,132.72071171310446,133.60757521827134,132.19258036761323,132.9000701904297,411200
2026-07-28,134.9030016293852,137.54365843276426,134.3549364800917,137.32443237304688,593100
2026-07-29,135.52081464440568,136.11870667337666,134.0759266469227,135.75,580000
2026-07-30,136.39999389648438,136.39999389648438,133.11000061035156,133.8699951171875,627000
2026-07-31,137.4600067138672,139.57000732421875,132.1699981689453,133.9600067138672,886500
2026-08-03,137.22999572753906,138.4600067138672,134.52999877929688,136.77000427246094,642500
2026-08-04,137.8699951171875,137.1999969482422,135.34230041503906,136.64500427246094,95503
