Date,Open,High,Low,Close,Volume
2023-06-20,112.43935851416155,112.50669870039683,111.31381225585938,111.31381225585938,297000
2023-06-21,110.76546213036721,110.88090558835343,109.11080926354511,109.30321502685547,317800
2023-06-22,109.62068186738438,109.7265032121453,108.08147231567553,109.71688842773438,266200
2023-06-23,108.61058359955739,109.40905111099394,107.81211608812085,108.54324340820312,366000
2023-06-26,108.76449527106796,110.0247292720477,108.76449527106796,109.2936019897461,142300
2023-06-27,109.50524179545765,110.45762652448515,108.92803915179037,110.3614273071289,218300
2023-06-28,110.4479902945496,110.4479902945496,108.20652019226185,109.20700073242188,204800
2023-06-29,109.12041329455344,110.97708640037011,108.27385009493527,110.41912078857422,225900
2023-06-30,110.84243082499913,111.8621557409713,110.47686352340168,111.45811462402344,279800
2023-07-03,111.02520912022894,112.57403332715113,111.02520912022894,112.11227416992188,85700
2023-07-05,111.22721849964348,111.22721849964348,108.47587872071331,108.64904022216797,384200
2023-07-06,107.98527198550394,108.68754023538193,107.38882507929975,108.19691467285156,277700
2023-07-07,108.37007152236167,110.94825013592458,108.31234612133264,109.46675872802734,333400
2023-07-10,109.00499442816958,110.91939335472682,108.71639677529014,110.12092590332031,248000
2023-07-11,109.96699400151331,111.1695024910392,109.06271260826982,111.12140655517578,226700
2023-07-12,112.15075043375238,113.08389817019831,111.37151996316304,112.42973327636719,199400
2023-07-13,112.41050560873053,112.91075331047938,112.13152272497258,112.5644302368164,190200
2023-07-14,113.21858729804248,114.3248892919281,112.26619524240341,113.85350799560547,271600
2023-07-17,113.9016239392938,114.99831127119708,112.70873738064174,114.72895050048828,234200
2023-07-18,114.48843831688549,115.7967682319705,114.19021119978753,114.55577850341797,189100
2023-07-19,114.23830983130526,114.8732378552366,113.81502448201769,114.58463287353516,247200
2023-07-20,115.22918005668726,115.65246542204783,114.34413551050594,114.79627990722656,175800
2023-07-21,115.10412706121498,115.4889312891488,114.35376285348565,115.28690338134766,184300
2023-07-24,115.46005920763793,115.91220360263762,114.19983257951267,115.18108367919922,163400
2023-07-25,115.13298219212088,116.518274429924,114.76742222471391,115.97954559326172,250700
2023-07-26,115.98920106005731,116.22086850035656,114.69570917552166,115.78648376464844,306900
2023-07-27,115.89265748696491,116.5876671201312,114.61847561435158,115.00459289550781,407800
2023-07-28,118.23832650015827,122.5821299006814,117.64949922781021,119.48355102539062,513000
2023-07-31,119.23255062876018,119.62832284159222,116.63592699428007,117.24405670166016,746500
2023-08-01,117.03171906797638,118.24798613025452,116.5587291855366,118.19007110595703,365300
2023-08-02,117.22476678755726,118.08387390872966,115.8154449105264,117.99699401855469,329200
2023-08-03,117.30199293914264,118.46999987567395,116.52976565163671,116.61663818359375,195900
2023-08-04,116.43325024116444,117.8908324354427,116.29811026771581,116.45255279541016,116500
2023-08-07,116.53941151793796,117.4371311010002,116.32704663695499,117.07997131347656,140300
2023-08-08,115.91197623422308,117.18615820393119,115.55481643313685,116.91587829589844,270100
2023-08-09,116.91586452983749,119.10706841016787,116.33668494987593,117.6012191772461,287500
2023-08-10,117.57226804078596,119.28082727342787,117.57226804078596,117.98734283447266,216000
2023-08-11,117.29232430266485,118.94296839489652,117.29232430266485,118.35414123535156,226500
2023-08-14,117.79428541805788,118.72096252441406,117.35990805602609,118.72096252441406,145700
2023-08-15,118.37344530901969,118.66303509647116,117.74601304383185,117.85218811035156,249000
2023-08-16,117.5046964278356,118.88506073505322,117.27302164070392,117.3212890625,291100
2023-08-17,117.72671616217751,118.40242328617137,117.39852124033838,117.4178237915039,186600
2023-08-18,117.16684484694098,119.13603644494522,117.16684484694098,119.01055145263672,443100
2023-08-21,118.87542120056459,120.13994827827493,118.78854130297485,119.48355102539062,358800
2023-08-22,119.5704144772244,121.3465436439304,118.49894252996661,118.68234252929688,429600
2023-08-23,118.78855405602752,119.27119893012427,118.06458674488239,119.10710144042969,305000
2023-08-24,119.20360799225472,121.1052296403174,118.33484589865057,120.76737976074219,278400
2023-08-25,121.21140038603271,123.2481617893748,120.64188312464738,123.11302185058594,493000
2023-08-28,123.19991484093003,125.08223406896586,123.19991484093003,124.91813659667969,331900
2023-08-29,125.29457226647436,127.37960099201372,124.90844765295894,127.24446105957031,472400
2023-08-30,127.77537379799342,128.63448091355718,127.1286315630544,128.27732849121094,298900
2023-08-31,128.65381103726338,129.08818845980795,127.64991622229032,127.95880126953125,305800
2023-09-01,128.48007001656228,129.14610756327914,127.92020020103661,127.94915771484375,252000
2023-09-05,127.10933191058002,127.39892174655428,122.93928835166383,123.14199829101562,325300
2023-09-06,123.3543672903448,123.56672483060133,121.81955289196907,122.02227020263672,291100
2023-09-07,121.90640939193572,122.75586148363936,120.79632501630161,121.0086898803711,328600
2023-09-08,121.15349629318462,122.27322836758205,120.77703394911717,120.96043395996094,238800
2023-09-11,122.58212288434471,123.48949745495977,122.02226051962224,122.60143280029297,333500
2023-09-12,121.73266457200782,122.87170652466514,121.06661243223265,122.1380844116211,258000
2023-09-13,121.41412887262732,122.19601111877186,120.76738658595033,121.01836395263672,279300
2023-09-14,121.636140247531,122.88136467115167,121.636140247531,122.360107421875,217900
2023-09-15,122.09947397972398,122.78482868131519,120.8252920593083,121.55891418457031,589200
2023-09-18,121.97399375623068,121.97399375623068,120.58397438341775,121.27898406982422,175100
2023-09-19,121.32724871079844,121.32724871079844,119.7538219944691,120.96043395996094,218600
2023-09-20,121.47203081864482,121.72300815831589,120.2364613996098,120.30403137207031,206200
2023-09-21,120.01443769668958,120.03374024505355,117.94871888676863,117.97767639160156,335700
2023-09-22,118.08389536505695,118.63411022089169,117.87153044445823,118.42174530029297,341200
2023-09-25,117.755680884051,119.8214001203192,117.25373351267645,119.73452758789062,258800
2023-09-26,119.24222158838647,119.9082737605531,118.95263913082606,119.3097915649414,547000
2023-09-27,119.73452920562256,120.13029413299238,118.6051420813391,119.23257446289062,362400
2023-09-28,119.56078169030411,121.27899616157656,118.98160934874582,121.11489868164062,219300
2023-09-29,122.09947311502151,122.42767539159397,120.45848382588365,120.6998062133789,330900
2023-10-02,120.20751791833786,121.12454749681847,119.68626062800243,120.70947265625,244100
2023-10-03,119.71521017927378,120.96043461818644,118.23831830380705,118.60513305664062,236300
2023-10-04,119.26154096613664,120.33301308264014,118.08388639739762,119.91793823242188,208200
2023-10-05,119.65729977912974,120.59363188391382,118.53756765542609,119.45458984375,466700
2023-10-06,119.31945619225938,122.29255013075931,119.10709128742714,122.02227020263672,491700
2023-10-09,121.45273985524017,122.80414679795139,121.32725485572051,122.53386688232422,275700
2023-10-10,122.82344297911708,124.14589234292649,122.11878571629325,122.14774322509766,322000
2023-10-11,123.10338592529297,123.26748339568097,122.25393369807082,123.10338592529297,212900
2023-10-12,122.8041363601095,122.9778887717552,120.71910742036091,121.06661224365234,189300
2023-10-13,121.62648405864162,122.2732262936777,121.047311797944,121.59752655029297,324900
2023-10-16,122.9392835826247,123.00685355978747,121.79058660628245,122.31184387207031,275200
2023-10-17,121.63614547446593,123.88526466233326,121.63614547446593,123.05512237548828,314400
2023-10-18,122.46629731522039,123.23852459609822,121.89677260716917,122.3794174194336,287300
2023-10-19,121.70370985945581,123.04546176273765,121.0376577043825,121.36585998535156,443900
2023-10-20,121.55889932589582,122.0898114630795,117.69774157059325,117.97767639160156,446500
2023-10-23,117.4950492127488,118.88506856883411,117.00274946337274,117.28268432617188,379000
2023-10-24,117.89081547731821,119.4738898224914,117.49505057331248,119.0588150024414,312100
2023-10-25,118.57456478321305,119.88205053938309,118.05156900291749,118.5164566040039,431300
2023-10-26,117.44140514446426,121.44134471348447,117.44140514446426,119.5430679321289,576000
2023-10-27,119.58181419956955,119.94015782086082,116.56975044747777,117.35424041748047,364000
2023-10-30,118.08063424721645,118.46803938652907,117.04432974830978,118.32276153564453,283100
2023-10-31,118.65203365004758,119.02006439131993,117.99344726783497,118.41958618164062,422900
2023-11-01,118.26464547425135,119.54307717643965,117.78039092964764,119.05882263183594,360500
2023-11-02,119.82394517295023,120.37599505580931,119.10725051904181,119.6883544921875,384300
2023-11-03,120.51159177876306,122.00309673107184,120.51159177876306,121.40261840820312,278000
2023-11-06,121.32512525461992,121.77064591937194,120.82150380061947,121.24765014648438,173500
2023-11-07,120.69559532283566,121.05393892700246,120.25976183544348,120.62779998779297,205000
2023-11-08,120.94740785382807,121.53819896716833,120.49221480588676,121.17985534667969,175800
2023-11-09,121.7319040679417,121.7319040679417,120.16291675704831,120.47283935546875,118600
2023-11-10,120.32756674184381,121.82875878037683,119.98859003966672,121.7609634399414,195600
2023-11-13,121.44135499845274,121.52852465947475,120.45347897141063,120.60843658447266,183100
2023-11-14,121.98370683076678,123.83356258630272,121.36386165561503,123.8238754272461,267400
2023-11-15,123.79482241076971,124.74396449982626,123.33962198995368,123.68828582763672,388600
2023-11-16,123.63018225230408,124.56962982804686,122.84568489375135,123.53333282470703,217000
2023-11-17,124.51152524922635,125.01515410991232,123.5914445767463,123.9013671875,162700
2023-11-20,123.43648855172951,123.63019481574594,122.44861246723028,123.31058502197266,213900
2023-11-21,123.44617025127671,124.2597217458794,123.19435581376419,123.88200378417969,160600
2023-11-22,124.40498620938287,125.13136800676534,123.34931487730645,124.5212173461914,174800
2023-11-24,124.90861400007235,124.90861400007235,124.06601585130784,124.48246765136719,65900
2023-11-27,123.79481026116167,124.25969779549266,122.85535542344662,123.0006332397461,367500
2023-11-28,123.00064589587653,123.01033305506304,121.53819520248676,121.6544189453125,218000
2023-11-29,121.68348364866526,122.4195526391636,120.98615590915504,121.42198944091797,331800
2023-11-30,121.49945624960122,123.12655173420484,120.879611054432,122.89411163330078,301000
2023-12-01,122.43891423680424,124.49214872577235,122.43891423680424,124.0660171508789,218300
2023-12-04,123.43647582266271,124.8214514528582,122.89411311762335,124.37593078613281,192000
2023-12-05,124.21128583306977,124.637432180179,121.91591672132816,122.02245330810547,178000
2023-12-06,122.40985460010225,123.29120135619293,121.91591293032465,122.39048767089844,179500
2023-12-07,122.26457897811483,123.10718450188428,122.0224517184367,122.50670623779297,254000
2023-12-08,122.38081712210914,123.48491696501823,121.66412241809445,123.31058502197266,265800
2023-12-11,123.25246079430477,123.65923281208454,122.36142687408662,123.55269622802734,338000
2023-12-12,123.63019043101764,124.06602396774328,122.69073540398784,123.46554565429688,210300
2023-12-13,123.17499431617054,124.92800090689016,123.17499431617054,124.54058837890625,425000
2023-12-14,125.01515711630776,125.91586349088605,122.88443265064014,123.3880615234375,412900
2023-12-15,123.15562026534607,124.53090140906804,122.0030920759156,122.01277923583984,713000
2023-12-18,122.71977536097222,123.2040298643566,121.91591111196121,123.049072265625,240500
2023-12-19,123.68828729734022,124.09506670556218,122.06119183186492,122.25489807128906,659100
2023-12-20,122.05151063829354,122.94254460492192,121.50914791967111,121.61568450927734,346400
2023-12-21,122.26457917418375,122.26457917418375,120.91835219934543,121.94497680664062,421900
2023-12-22,122.41953577357906,123.03938092571772,122.14835444316053,122.29362487792969,312200
2023-12-26,122.16772810971344,122.87474295084685,121.63504518905556,121.86749267578125,274700
2023-12-27,122.14835976545038,122.48733644324355,121.09268109559463,121.33480834960938,283100
2023-12-28,121.04425844496743,121.8384355318541,120.48252144984001,121.25732421875,343600
2023-12-29,121.24764780949722,121.41229257117608,119.66897336181908,119.72708892822266,313500
2024-01-02,118.74889703904802,120.19197347679686,118.43897443384415,119.01039123535156,313100
2024-01-03,121.20890647105196,123.25246111360688,119.27188841283024,121.41229248046875,531700
2024-01-04,121.23795714716954,121.95465173958021,120.22101973957194,120.30818939208984,353300
2024-01-05,119.88205394447617,120.45347814976842,119.11693087689318,120.28882598876953,423000
2024-01-08,120.16290832968755,121.21858695564104,118.51644602651325,120.43408966064453,352400
2024-01-09,119.81424996434863,120.71496364841524,119.0975553585858,120.70527648925781,250300
2024-01-10,120.54063528985738,121.47040308972274,120.317882346619,121.24765014648438,279600
2024-01-11,121.43166549949392,122.97159877535763,121.00552652992823,122.84568786621094,323100
2024-01-12,123.86262311015058,123.94010560835483,121.9546590794131,122.44860076904297,231700
2024-01-16,121.91592138408514,122.82632229167827,121.55757775043605,122.81663513183594,257500
2024-01-17,121.97402717748967,123.26213854603338,121.92559877129759,122.70040893554688,336900
2024-01-18,123.31057880230377,125.91586326695527,122.33238253849082,125.0732650756836,444200
2024-01-19,125.62530563186141,127.32019633787085,124.49213712639097,126.68097686767578,418000
2024-01-22,126.77783228272094,127.65917908967951,126.44854274328884,127.05870819091797,266200
2024-01-23,127.64951951375063,127.69794793092298,126.22580976289659,127.67857360839844,217800
2024-01-24,127.95939664057987,128.12404138726603,126.42915073939402,126.6615982055664,294400
2024-01-25,127.87224954144052,128.2112336225098,126.27421550960058,127.11681365966797,332300
2024-01-26,127.5332837592286,128.4146306738467,127.26210236677342,127.55265808105469,219900
2024-01-29,126.92310407579417,128.41460139422355,126.38074141454712,128.08531188964844,187800
2024-01-30,127.8722387329765,128.898855881519,127.4848410544498,128.08531188964844,228400
2024-01-31,128.6002301485407,128.98884744345068,125.48165603714608,126.18115234375,537500
2024-02-01,126.74463109681972,127.37611379178679,125.91883235026269,126.78348541259766,298800
2024-02-02,126.25887748257338,126.98751824296068,125.02504164419864,126.39488983154297,344800
2024-02-05,125.45249812927631,127.70641890092334,124.40325378197716,126.92919921875,319500
2024-02-06,126.76404086060465,127.6578382954497,125.61765333250959,127.39553833007812,369700
2024-02-07,127.66757043860348,128.64880125247385,125.6856594170207,128.0464630126953,393000
2024-02-08,127.89101966708147,130.99988380062553,127.79386164056334,128.3573455810547,620700
2024-02-09,128.34763875632336,135.24544372439263,127.76472023183752,135.0025634765625,650900
2024-02-12,135.19685465206098,136.46954468413216,133.59383624109773,133.6909942626953,491300
2024-02-13,132.79721865694546,133.41899155451992,131.13591108923504,132.05885314941406,275900
2024-02-14,132.37943171551453,133.5452686480157,131.32047749858393,133.26351928710938,335000
2024-02-15,133.26352772923445,133.88530054798204,130.7375821386744,131.19418334960938,471400
2024-02-16,131.51479249745606,134.06989746093748,131.19418878983706,133.58413696289062,453900
2024-02-20,133.2343801311246,136.14894292952246,133.04978878201547,135.71176147460938,373000
2024-02-21,135.1191419156268,136.11980735566468,135.03170858379454,136.012939453125,276300
2024-02-22,136.4695496025818,138.36401249814983,136.08094715065158,137.44107055664062,295700
2024-02-23,137.9268263528802,138.00454980547522,136.59584743474338,137.33419799804688,190300
2024-02-26,137.47021310589366,138.01426246079586,136.79015141226589,137.8782501220703,199200
2024-02-27,137.87823606201974,138.13082614411428,135.81861662156606,136.3140869140625,244600
2024-02-28,135.67288950179886,137.21761901910057,135.36201051839788,136.4112548828125,189600
2024-02-29,136.62499564942553,137.59651659734325,135.8477759262447,136.4598388671875,250600
2024-03-01,135.89635016734115,136.78042293249038,135.58545635929062,136.29466247558594,151400
2024-03-04,136.68329367940922,138.07256161225055,136.55699120397486,137.91712951660156,260300
2024-03-05,138.21831661463187,139.13154885729068,137.70341159683255,138.46119689941406,190200
2024-03-06,138.85947150350745,139.54925784719796,138.42229007474432,138.99549865722656,184000
2024-03-07,140.3847801035931,141.0065529311518,139.74357270585753,140.53050231933594,250100
2024-03-08,140.58881247786712,140.9385606359244,138.89836057655117,139.0149383544922,185200
2024-03-11,138.72349095328647,139.29669966708138,137.9365612363938,138.6749267578125,226700
2024-03-12,138.73321697940324,138.7817959995776,137.45080200313137,138.3543243408203,242200
2024-03-13,138.9274874603586,138.9274874603586,136.91643209967154,137.139892578125,336800
2024-03-14,137.33421990117986,137.5868100442241,136.36269882514554,136.9164581298828,235200
2024-03-15,136.0517998322653,138.35431477607804,135.76035537983867,136.98446655273438,599500
2024-03-18,136.91647548900633,137.27594841319515,134.9734330905867,135.29403686523438,299700
2024-03-19,134.92484757362786,136.3238402513451,134.92484757362786,135.53689575195312,253000
2024-03-20,135.6534968065034,136.08096846512183,135.1774461277264,135.9838104248047,220000
2024-03-21,136.3141039613634,137.5673743053394,135.33287312535157,137.12046813964844,255800
2024-03-22,137.96566942097775,138.39314096328917,137.03301771432692,137.55763244628906,276000
2024-03-25,137.17875500009464,139.94759563375453,137.1496105575705,138.88864135742188,316300
2024-03-26,138.7623528695866,140.20019986781864,138.55832692713028,139.12181091308594,314200
2024-03-27,139.57841110454743,141.01625793912805,139.57841110454743,140.54022216796875,218200
2024-03-28,140.69566694081686,141.21057184317644,139.55897441755064,139.79214477539062,247800
2024-04-01,139.69495191700273,139.69495191700273,138.0725141619076,138.2376708984375,204400
2024-04-02,137.8005474729194,137.8005474729194,136.39184486109863,136.62501525878906,202600
2024-04-03,136.66384822637758,137.16904326365426,135.88662851308266,136.8678741455078,258700
2024-04-04,137.79081244096392,138.68460989923494,136.95530386541427,137.7130889892578,403600
2024-04-05,137.35365632292107,138.69434534542057,136.93589454599896,137.6936798095703,288300
2024-04-08,137.63539087239522,138.32517736811184,136.39184506466097,136.5084228515625,312500
2024-04-09,136.42095479960858,137.08159668050206,135.39114507938174,136.3140869140625,242600
2024-04-10,135.0219709342602,136.22666219057993,134.5070660416618,135.4300079345703,200700
2024-04-11,135.2940122618255,136.05179747346585,134.50708260544775,135.167724609375,265300
2024-04-12,134.23507075984173,134.99285604404997,132.08801739599699,133.29269409179688,299200
2024-04-15,134.66253312030298,135.82835541361058,133.90474788844134,134.2642059326172,319600
2024-04-16,133.86586195888154,135.4203013711966,133.44811507605868,134.64308166503906,281700
2024-04-17,134.92485214373025,135.50775589636643,134.4099471579958,134.45851135253906,565400
2024-04-18,134.448803796288,135.4689039112812,134.2836469889821,135.14830017089844,246600
2024-04-19,135.09967946473202,135.93518794192016,134.8179449566686,135.3717041015625,276600
2024-04-22,135.5757619405855,137.1301866853224,135.28430266837407,136.32383728027344,298800
2024-04-23,135.78947777534367,137.13989120783145,135.5465975549377,136.1586456298828,417200
2024-04-24,136.36329301656707,137.28894299900975,136.06124022029175,136.4217529296875,559200
2024-04-25,136.25608912785975,137.6299563309936,135.3596692495126,136.58737182617188,694400
2024-04-26,138.36074617212847,144.70389897172197,138.26330307984543,139.6566619873047,489500
2024-04-29,141.1864289502725,144.22647823824295,140.670013228058,142.62850952148438,676700
2024-04-30,142.004909646234,142.35568398559658,140.36795777329885,140.6797637939453,585100
2024-05-01,141.2741247498313,143.43723060207003,140.87462887898343,141.6541290283203,359600
2024-05-02,142.02439483195232,142.96953644520997,141.56643900417882,142.1802978515625,356500
2024-05-03,143.33978450110888,143.3592760930588,141.12795714823582,143.04747009277344,303300
2024-05-06,143.97311219834887,145.25928957827287,143.38849828106964,145.22030639648438,260200
2024-05-07,144.51877476610764,146.52597749323783,144.51877476610764,145.8828887939453,392900
2024-05-08,145.8829062711246,147.003427580538,145.64905175216694,146.92547607421875,223500
2024-05-09,147.13009939399845,147.84138644002505,144.82084365124953,145.25930786132812,299100
2024-05-10,145.13262025255216,145.18134179717063,144.29466023538959,144.68441772460938,186300
2024-05-13,144.72341108332498,145.6490611203431,143.0962123120397,144.080322265625,167500
2024-05-14,144.49926977786777,144.5090081386895,143.69053979787014,144.10951232910156,137600
2024-05-15,144.16801247457715,144.53826353142094,143.00850802044988,143.50543212890625,211100
2024-05-16,143.59313242219713,144.10954816095494,142.67722077451944,143.75877380371094,235500
2024-05-17,144.06081633480602,144.37260744920198,143.35926774275575,143.8854217529297,169500
2024-05-20,143.80748238942644,144.60647413522753,143.27157510477068,144.37261962890625,163400
2024-05-21,144.14852481169098,144.86955021996388,143.32030307395482,144.7818603515625,280400
2024-05-22,144.2751965381992,145.01571353298542,143.6905676854479,144.9767303466797,283300
2024-05-23,144.8500545527729,145.1326157143598,143.7782400755933,143.93414306640625,171700
2024-05-24,144.67469733909195,145.01573336111525,143.58340585698753,144.29469299316406,162300
2024-05-28,143.836724802742,143.9926278204598,142.08286789047202,142.95005798339844,318400
2024-05-29,141.91719871726886,142.94029173473893,140.80641583571733,141.12796020507812,229700
2024-05-30,141.41055859095138,143.2131371752501,141.28388552211965,142.39466857910156,328100
2024-05-31,142.34593730463553,144.04134916751755,142.18029592394424,143.90493774414062,358900
2024-06-03,144.69416726211233,144.69416726211233,142.53106134998768,144.36288452148438,266200
2024-06-04,143.86593620254556,144.58697641568443,142.9402863143089,144.39210510253906,287900
2024-06-05,143.93415699679983,144.40185114677604,143.3105598409219,144.1290283203125,229200
2024-06-06,144.21670298010207,144.21670298010207,141.6735930769153,142.21925354003906,197600
2024-06-07,142.03414136730888,142.57978704249172,141.7223353427875,141.8197784423828,179100
2024-06-10,141.11823236928575,142.07311231854575,140.2997638413486,141.85874938964844,125800
2024-06-11,141.19616629951713,142.0048963637283,140.65052068215246,141.7710418701172,147700
2024-06-12,142.49208619477034,142.56028446504888,140.37770193248102,142.09259033203125,221300
2024-06-13,142.1510502401924,142.77464737345872,141.3033518363989,142.09259033203125,232400
2024-06-14,141.37156596501876,141.65414204313348,139.99769849820458,141.040283203125,141500
2024-06-17,141.15718412148226,142.92079402863507,140.86488458704773,142.57977294921875,303800
2024-06-18,142.72593269483835,143.9049287478212,142.7161943322524,142.93055725097656,219900
2024-06-20,142.9013265736243,143.74902501392364,141.93669344423844,142.07310485839844,199900
2024-06-21,142.13156155358197,143.3690174832924,141.5859159092863,143.08645629882812,444100
2024-06-24,143.4469635485069,144.43107334340556,142.91105628683806,142.95977783203125,182900
2024-06-25,143.02797539856016,143.0377286281878,140.79667136986237,141.14744567871094,194500
2024-06-26,140.55310113558045,141.07925524967655,139.29616833273786,140.02694702148438,192400
2024-06-27,140.1828155517578,140.19256878158996,138.6238301546421,140.1828155517578,377300
2024-06-28,140.0951327056182,140.62130164013826,136.49969950140468,137.2012481689453,435100
2024-07-01,137.75665211276703,137.85408034544307,134.84327587630082,134.9894256591797,306400
2024-07-02,134.930951195947,136.899185643609,134.2294025783195,136.80174255371094,259400
2024-07-03,137.26944057578334,137.77610297313112,136.9673878360534,137.60072326660156,143300
2024-07-05,137.37662989691958,137.81509405611425,136.14891240990124,137.28892517089844,207000
2024-07-08,138.019727465646,138.84794925037193,137.8735776766851,137.88331604003906,249300
2024-07-09,137.24996524910202,137.64946111828195,136.16841232749826,136.4509735107422,238400
2024-07-10,137.1427912342902,138.0002429282775,136.96741149746342,137.6689453125,142000
2024-07-11,137.5812505259672,139.62743658884474,137.14278633184458,138.4484405517578,244500
2024-07-12,139.7346176851943,141.76131215018944,139.7346176851943,140.88436889648438,263900
2024-07-15,141.0500051627038,141.95617833865197,139.471528177945,139.75408935546875,319900
2024-07-16,140.1633376598292,141.5761732749764,140.1633376598292,140.85513305664062,178800
2024-07-17,140.6407683731012,142.03412724659594,140.6407683731012,141.14744567871094,242300
2024-07-18,140.90385313125856,143.47619311255724,140.89411476933762,142.5310516357422,434200
2024-07-19,142.8331035452224,142.8331035452224,140.95257383249924,142.19976806640625,251200
2024-07-22,142.24849707102436,143.7782525564522,141.5274568267193,143.41773986816406,235700
2024-07-23,144.08029691478612,144.70389402799864,141.93668276735104,142.2971954345703,234500
2024-07-24,142.3264523213691,142.87209798322195,140.21205308009542,140.44590759277344,250600
2024-07-25,139.60532117118015,140.79777835848,138.03166963150022,138.2955780029297,558100
2024-07-26,139.89854478345555,147.87430433163027,139.13615611277922,143.34884643554688,562800
2024-07-29,143.27064714459567,145.0006898134207,141.8924773081708,144.46310424804688,390900
2024-07-30,144.0526005590325,144.5608497597373,142.12707613546905,142.4593963623047,411000
2024-07-31,143.1924622534942,145.48941215296958,142.12707481683992,143.66162109375,280600
2024-08-01,143.56387227526403,146.16380570863123,142.14659721829562,143.71047973632812,335300
2024-08-02,143.2706626945803,143.68117855788788,140.50455386188017,142.4007568359375,213500
2024-08-05,140.19177372348608,140.19177372348608,136.33095585655514,137.5038604736328,448500
2024-08-06,138.13918435319152,142.7917121263533,137.92415011565598,141.65789794921875,476000
2024-08-07,142.71351863316335,143.93529731272562,140.23087091858068,140.35794067382812,353600
2024-08-08,141.19852534854527,142.8601413739707,141.19852534854527,142.273681640625,268600
2024-08-09,142.12707150261355,142.12707150261355,140.2308686365047,140.7000274658203,263200
2024-08-12,140.71958701960284,140.92483749251866,139.5466824314966,140.054931640625,221100
2024-08-13,140.2699807407797,142.0195764047253,139.86924861313025,141.11056518554688,212000
2024-08-14,140.8759715764874,141.54061200957045,140.25042149828965,140.65115356445312,115700
2024-08-15,141.72634869442948,144.01351515599896,141.72634869442948,143.6909637451172,277500
2024-08-16,142.8112574093109,143.52477193479024,142.3225459699408,143.40748596191406,250600
2024-08-19,143.01655169361428,144.39470689643647,142.62557351448993,143.65187072753906,191200
2024-08-20,143.66163572090477,144.9616101671914,143.66163572090477,144.76612854003906,387200
2024-08-21,144.8247581748117,146.19315926720975,144.13079622530404,145.9585723876953,267300
2024-08-22,146.19315832348536,147.004406250368,145.313468716703,145.62625122070312,200400
2024-08-23,146.28112932183024,147.13148255671317,146.0660950693302,147.04351806640625,221400
2024-08-26,147.27808563075303,149.22316270583966,146.7502837904236,146.76983642578125,235500
2024-08-27,146.62319560495607,148.1186513646186,146.45703551102568,147.7863311767578,208300
2024-08-28,147.52243900517198,148.53896722738338,147.52243900517198,148.11866760253906,249000
2024-08-29,149.10588837840956,149.45776127089994,147.7961450785867,148.84197998046875,187100
2024-08-30,148.76377592556912,149.9757858009324,148.21642143807964,149.73143005371094,178500
2024-09-03,148.67579943804665,148.9397077997503,146.34952813965234,146.65252685546875,362400
2024-09-04,146.22250262276373,147.49314072912452,146.22250262276373,147.3269805908203,175800
2024-09-05,147.66907259304693,148.33371309202553,146.5645798008299,147.31719970703125,200600
2024-09-06,146.9848666423844,149.66299595561912,146.9848666423844,148.93971252441406,319100
2024-09-09,149.12544950502766,149.6043772788133,148.02095662960824,148.4803466796875,241500
2024-09-10,148.44121305528495,149.3404403457152,148.02092836146767,148.08934020996094,158100
2024-09-11,147.38560462789548,147.47358403097817,145.27438232544125,147.43447875976562,178000
2024-09-12,147.48334040431294,148.57804927691873,146.58411312834534,148.52919006347656,200400
2024-09-13,148.75401548591918,149.55549462674657,148.47055445109223,148.84197998046875,138600
2024-09-16,149.58480892545694,149.711878687663,148.63672233934471,149.53594970703125,182900
2024-09-17,150.52312888636465,152.05769002153292,148.44121330516873,149.5750274658203,259900
2024-09-18,150.28854503898594,151.97949745395337,149.26226288919727,149.6141357421875,214200
2024-09-19,151.5201058020689,155.2245321204598,151.5201058020689,153.35765075683594,412400
2024-09-20,152.78099315792383,152.78099315792383,150.9923072031144,152.39002990722656,663300
2024-09-23,152.64413901555898,153.36743736156149,151.24643136778755,152.4388885498047,315800
2024-09-24,152.6539129888592,153.53360261442796,152.5073055084099,153.09376525878906,246200
2024-09-25,153.74863062888252,154.30575394629471,152.35090807666947,153.5922393798828,284100
2024-09-26,154.37417652916213,155.4688854139277,154.13958966201668,154.8042449951172,371600
2024-09-27,155.0974630619756,157.9026770071578,154.6869472219151,156.2801513671875,354300
2024-09-30,155.6937051154717,156.79819789228802,155.34183223436244,156.57339477539062,289800
2024-10-01,156.91547599488553,156.91547599488553,155.45912532444558,156.3583526611328,192200
2024-10-02,156.25083362745252,156.49518936533394,154.39373598527015,155.1658935546875,186900
2024-10-03,154.42305944347365,156.83729535757135,153.10353247642593,155.3516082763672,367000
2024-10-04,156.32902451153032,157.82448038886116,155.73279593261282,156.95457458496094,350500
2024-10-07,155.79144712681207,156.03580287015131,154.4425986510062,155.1072540283203,223300
2024-10-08,154.7065131414347,155.4298115394373,153.5531611461703,155.08770751953125,205900
2024-10-09,154.77493978776437,156.43655592393026,154.55012175690058,156.09445190429688,152600
2024-10-10,154.48172195318833,155.78169644920234,154.48172195318833,155.62530517578125,168500
2024-10-11,157.30643565031355,158.26430586600358,156.729759749031,157.9026641845703,194400
2024-10-14,161.26503180438755,163.97248287121053,159.76957575499546,163.4153594970703,469700
2024-10-15,163.54242314234259,165.829589377647,162.73116026449534,164.8717041015625,397300
2024-10-16,164.89126975955236,165.37998129702245,162.17403480436204,162.29132080078125,330000
2024-10-17,163.2100898224655,164.51984798903112,162.76048359045095,164.09954833984375,238200
2024-10-18,165.2822507639931,165.2822507639931,163.9920451241525,164.82286071777344,171500
2024-10-21,164.66642176272074,164.68597439489406,162.54541605771234,162.57473754882812,217900
2024-10-22,161.97851806569597,162.61383696099375,161.0890596808476,162.0664825439453,228500
2024-10-23,162.75066778512507,164.18748051833646,162.40857874796765,163.86492919921875,318100
2024-10-24,164.96263491104682,164.97243006379486,162.8359053646187,163.22793579101562,547300
2024-10-25,165.5506581898616,166.4621158464969,161.32662941673635,165.54086303710938,518900
2024-10-28,166.51109693898178,167.9909874127624,165.39383645811452,165.72706604003906,350000
2024-10-29,165.6584719985112,166.1093032703483,164.29619798424773,165.33505249023438,338100
2024-10-30,164.9920484370092,166.80513883198944,164.76662531600283,165.65847778320312,290300
2024-10-31,165.71726236332717,166.8835285592377,164.511800602721,164.56080627441406,329900
2024-11-01,164.74701596713246,167.57937026995276,164.27657947244072,166.0308837890625,316300
2024-11-04,166.24649215601715,167.16774490614142,164.82540251348084,164.90380859375,191800
2024-11-05,164.39420326637682,166.9619390225879,164.39420326637682,166.91293334960938,206200
2024-11-06,171.6563823010005,171.6563823010005,168.7064263444236,169.70608520507812,264100
2024-11-07,170.72532182060624,171.96019883841325,170.07848290217686,171.22515869140625,412300
2024-11-08,171.21535702617146,174.29272466184403,171.0095541493443,172.25421142578125,309200
2024-11-11,172.80305109831977,174.47893431358193,172.39141544269447,172.6364288330078,189100
2024-11-12,173.12648260778755,173.70472566445483,171.46039428476385,172.1954345703125,179800
2024-11-13,171.99940490722656,172.87165200345066,171.55838378296605,171.99940490722656,168400
2024-11-14,171.65637889220199,172.28361258645606,170.4411220214521,170.62733459472656,198200
2024-11-15,169.51987152643795,170.29410728655165,162.8555040894364,163.16912841796875,620500
2024-11-18,163.07110850953194,164.47259285308147,161.05220060257204,163.36512756347656,384400
2024-11-19,163.10050135971352,164.32556823234182,162.88488839377655,163.5709228515625,287600
2024-11-20,163.6689523651395,165.57025875538363,162.3458740139482,165.36444091796875,221800
2024-11-21,165.32524989622468,166.83452591248917,164.3942019349008,166.49151611328125,205100
2024-11-22,166.78550102159357,168.63781653249123,166.78550102159357,168.08897399902344,241600
2024-11-25,168.61821351971585,170.54892017809755,168.31439931687723,169.05923461914062,270100
2024-11-26,169.41206482132665,169.41206482132665,167.74597670276387,168.60841369628906,140300
2024-11-27,169.2258486988311,170.41172010241513,168.09879307136399,168.30459594726562,167200
2024-11-29,169.14745603968092,170.0295132982539,168.65742921417322,169.5100860595703,117300
2024-12-02,169.52966938718723,169.65708114199288,167.43235525852162,169.31405639648438,170900
2024-12-03,169.99030199549844,169.99030199549844,167.6773747915681,168.96124267578125,160100
2024-12-04,168.46141115590896,169.44146474689205,167.61856446948624,169.14744567871094,173400
2024-12-05,168.57901699001582,169.0004478209138,167.1285418265622,167.6871795654297,245000
2024-12-06,168.17719634246092,169.206240613641,167.44215617480054,167.7361602783203,209200
2024-12-09,168.13799201141873,170.00989796299024,166.8345189382819,167.3833465576172,301700
2024-12-10,167.31474873040528,167.9517775769901,164.8352143640773,167.50096130371094,287000
2024-12-11,168.4516157508474,170.6273359159199,168.32420399879283,168.87303161621094,418600
2024-12-12,168.2458005582768,169.15725818713602,167.37355344809498,168.21640014648438,178300
2024-12-13,167.5009593612563,167.58916059355795,166.43270455823205,166.80511474609375,153200
2024-12-16,166.74630591386563,167.52054161759173,164.24716643769864,164.286376953125,236100
2024-12-17,163.5709465562723,163.58075666350993,159.59193117004511,159.83694458007812,511900
2024-12-18,160.42498045548814,161.14041541532916,154.7602716927562,155.05429077148438,468600
2024-12-19,155.34829094522857,158.34726752667316,155.07387713324243,155.70111083984375,404700
2024-12-20,155.55410914655246,156.59296357357135,154.32904214215637,155.02487182617188,730200
2024-12-23,154.0350301134896,155.7305187378595,153.82922722182215,155.3581085205078,194900
2024-12-24,155.61290160454055,156.24013527889497,154.77005495264896,156.17153930664062,100500
2024-12-26,155.26010295270436,156.44597449127195,155.26010295270436,155.68153381347656,164500
2024-12-27,154.6720636172203,156.39695253937097,154.46624578488056,154.99546813964844,145000
2024-12-30,153.86840893166374,154.34864055969513,151.90830181151514,153.60379028320312,221700
2024-12-31,154.14283313865855,155.09348635246576,153.06476816802203,153.9664306640625,317100
2025-01-02,154.50542966476186,154.95626085871288,150.38920791910837,151.08505249023438,239400
2025-01-03,150.967461006653,152.61395895139125,149.82080000531155,152.39834594726562,250700
2025-01-06,150.92824108328222,151.55547473376282,148.41930648135983,149.86978149414062,369000
2025-01-07,152.80993693958266,152.94714382872445,149.55616715946428,150.36959838867188,361200
2025-01-08,149.84039419615527,151.1830628417546,149.05634832584286,151.07525634765625,228600
2025-01-10,149.67381662655563,151.22230341571657,149.53660969356335,150.38925170898438,350800
2025-01-13,149.87959178115395,151.61429086251573,149.87959178115395,150.82044982910156,349300
2025-01-14,151.72208498613796,152.34931864881253,150.41861199327377,151.5260772705078,196900
2025-01-15,153.0059656935918,153.7900115770172,151.09486413391397,152.45713806152344,206100
2025-01-16,152.78057478429722,154.03504235752092,152.21214182855007,153.2902069091797,346300
2025-01-17,153.83901445152966,154.79946279018606,152.5747369358163,152.9765625,231900
2025-01-21,153.59400049694958,157.0633836408648,153.59400049694958,156.6419677734375,270900
2025-01-22,156.16174421991363,157.54362344855716,155.18169057482152,155.8971405029297,280000
2025-01-23,155.29930636956567,156.62236981086585,154.58385644519683,156.4361572265625,149800
2025-01-24,156.46554994853224,157.26920107193223,154.08402689859372,155.14248657226562,329600
2025-01-27,155.09349854860477,155.75013273528967,153.52540664153773,155.29931640625,317000
2025-01-28,154.42704949078208,157.15159724174742,154.42704949078208,155.2600860595703,204300
2025-01-29,155.61289915746963,155.65210967336728,153.49597993190142,153.97621154785156,265800
2025-01-30,154.67206164041292,155.51489335460406,153.4567898296652,154.9758758544922,274200
2025-01-31,154.75046688049648,156.21075221700386,153.63320630664722,154.0154266357422,834100
2025-02-03,151.49669007178431,153.62340462840817,151.0654640871359,152.86875915527344,364600
2025-02-04,152.97654142721998,155.29927830318667,152.97654142721998,154.55442810058594,302400
2025-02-05,155.56678689466608,156.92313594175852,155.07535781931088,155.60610961914062,262600
2025-02-06,157.1000465610709,157.1000465610709,152.70666933390916,153.76815795898438,446600
2025-02-07,154.91808990897187,155.19328897894562,139.60515881383517,140.72561645507812,1221500
2025-02-10,141.7871257185982,142.1213089214259,138.4847213993473,140.8239288330078,621900
2025-02-11,139.83122949001555,140.6175189886004,137.85567506270266,139.8508758544922,377300
2025-02-12,138.55351384739762,141.03032057107268,137.53133297854282,139.27099609375,423500
2025-02-13,140.30300099128152,141.31534368657196,139.03512057584868,140.32266235351562,665900
2025-02-14,141.22690931883105,142.81913494082784,140.27353558295644,142.30804443359375,512800
2025-02-18,142.3080350119088,144.7651805608191,141.4332917963858,144.38186645507812,489600
2025-02-19,143.63488862497093,144.9617531188217,143.1139750082088,144.5194549560547,331000
2025-02-20,144.45067143286263,144.8929546251905,143.41866731928027,144.16563415527344,283100
2025-02-21,144.50964123842508,144.86347079347803,142.71100891667461,143.8314666748047,451900
2025-02-24,143.67418921142476,144.76516229739394,141.88539527604814,143.1139678955078,353300
2025-02-25,143.3793614383485,145.7873610696006,143.22210052435642,145.17799377441406,336700
2025-02-26,144.13613543793164,146.6227652496447,144.10665089449034,144.12631225585938,735600
2025-02-27,143.7233270416984,144.65703918058972,142.86824534570223,143.1336212158203,262800
2025-02-28,143.6545381184058,144.43098938956481,142.1507664814693,144.2344207763672,348700
2025-03-03,144.45066986764067,146.2886098899811,143.19261258000728,144.07717895507812,394100
2025-03-04,143.04517170760187,145.413863500686,142.65203443781988,143.43832397460938,490100
2025-03-05,143.54643172433074,146.2984374655058,143.54643172433074,145.8954620361328,445100
2025-03-06,145.03053362562386,148.90299680004554,144.53910459328046,148.55899047851562,471700
2025-03-07,147.92997950600335,150.7311313223095,146.62277632487553,150.16107177734375,480200
2025-03-10,149.46325521067857,151.36016435752973,147.6646228865031,147.9889678955078,391100
2025-03-11,147.76290385774493,147.9791338698189,144.74553686653798,145.3549041748047,304000
2025-03-12,145.69890235666847,145.69890235666847,143.0648346293028,143.5267791748047,299700
2025-03-13,143.900274240468,144.67672562820923,141.29569098355023,142.27854919433594,238400
2025-03-14,142.74048587257624,144.3720340117381,142.0623113450195,144.14598083496094,223600
2025-03-17,143.99853726172162,145.46300125443267,143.35968548483189,145.3057403564453,225200
2025-03-18,144.86347189053822,145.00107144092166,143.28106956251574,143.7921600341797,219900
2025-03-19,143.8314663428333,144.93227773224964,142.97638450227305,144.4604949951172,279600
2025-03-20,143.62507975791536,144.8929602918042,141.26621097787046,142.7110137939453,332800
2025-03-21,141.5315735327772,142.96655302987472,139.9196867674318,142.3375244140625,601900
2025-03-24,143.25157833447938,145.6399164898611,142.42598107068508,145.45318603515625,463800
2025-03-25,145.94461117942933,146.67191660765496,143.4284817335018,144.68655395507812,325200
2025-03-26,144.52930198564368,146.15101202434067,143.79215833219487,146.01341247558594,630400
2025-03-27,145.73820579296662,147.32060801990121,144.50963310116106,146.7898712158203,312700
2025-03-28,146.73087685638546,147.42871269525497,143.26138901740174,144.4113311767578,239800
2025-03-31,144.06735434534886,146.5343229870739,143.59558661646503,145.8365020751953,372500
2025-04-01,146.3279137024049,147.4581944797028,144.85362660303,146.5441436767578,240000
2025-04-02,145.46300090804647,148.5393516047407,145.46300090804647,147.9496307373047,247600
2025-04-03,144.24427337200635,147.4778854578111,143.9494278906975,146.1215362548828,352900
2025-04-04,142.73068331492644,145.42372045194998,137.63946952988923,137.77706909179688,531600
2025-04-07,134.00287530876898,139.6837941624517,128.60699371434606,132.3418426513672,629900
2025-04-08,135.025053604175,136.9219625810332,129.02961306087627,131.3688201904297,473800
2025-04-09,130.89704037690942,141.94437131089686,129.06893862699687,141.28585815429688,491800
2025-04-10,137.60014014324574,140.9123672890104,135.21180205228458,138.34710693359375,309000
2025-04-11,138.45522828256912,142.2294151261458,137.3446087271347,141.6396942138672,203000
2025-04-14,143.30071647529343,143.8904223472296,141.32516206166184,143.29087829589844,249300
2025-04-15,143.59560325421714,144.02804830741772,141.30554162152515,141.47262573242188,250700
2025-04-16,141.59054573403094,143.32038571345137,140.12609665726538,142.51443481445312,307700
2025-04-17,142.9075815858467,143.26141115086992,138.2979890544082,141.364501953125,390600
2025-04-21,140.84358440349993,141.58072806053443,138.6812993423107,140.13592529296875,291600
2025-04-22,142.02298881443642,144.30322669856744,141.12858438589072,143.51693725585938,217800
2025-04-23,145.3352237379666,146.76037999339664,144.69637196618555,145.51214599609375,537000
2025-04-24,145.39420527769312,149.3944453214828,142.9665593386668,148.86370849609375,424500
2025-04-25,148.2641770082967,150.37731630387205,145.04040306116835,146.50485229492188,220500
2025-04-28,147.23215717254052,148.44106852493894,145.73820855180134,147.1338653564453,235200
2025-04-29,147.1928352219858,149.37478157519996,146.4556915890682,147.7235870361328,359900
2025-04-30,146.51468782594912,147.41891562430362,144.68657086484222,147.3795928955078,556200
2025-05-01,146.34446689472773,148.3949671666266,144.87560983167245,146.1768798828125,445300
2025-05-02,150.8200800146687,150.82993276495682,145.69382189987473,149.8441162109375,431600
2025-05-05,149.28220335297306,151.04682352421423,148.74001624656938,149.3314971923828,267600
2025-05-06,148.11893891054953,149.88354394348798,147.30070935640887,148.77943420410156,312000
2025-05-07,149.72583816830937,150.97781448792617,148.48369955760796,149.24278259277344,318400
2025-05-08,149.63710557992187,152.37768975892342,149.0949184458267,151.18484497070312,302500
2025-05-09,151.72702915659627,152.11149701025283,150.77078589758978,151.14540100097656,231600
2025-05-12,153.58035336298764,154.36900960970033,151.52000038825545,153.31419372558594,352500
2025-05-13,154.09298971226121,154.09298971226121,151.02709949704072,151.4608612060547,339400
2025-05-14,151.4411368076829,151.4411368076829,148.82872891175197,150.3173065185547,350100
2025-05-15,150.18915951898913,153.2747551350197,150.18915951898913,152.7522735595703,278100
2025-05-16,152.97900445208893,154.92106425191258,152.39737629987306,154.78305053710938,278600
2025-05-19,154.14228486208216,156.09419752688567,154.09299102338977,155.837890625,185400
2025-05-20,157.98696796016725,157.98696796016725,155.6703079013984,156.28150939941406,388100
2025-05-21,154.635175921722,155.4139643336995,153.61978613582386,154.23098754882812,319800
2025-05-22,154.14229666137166,155.02952565627956,153.35364030902645,154.4281768798828,278900
2025-05-23,152.9198641452087,153.964827320536,152.07206127878644,153.72824096679688,260500
2025-05-27,154.80278568952716,156.19279076132077,154.46761164228232,155.91676330566406,352800
2025-05-28,155.91675648544185,156.58710455060864,155.02951252332593,155.1675262451172,364400
2025-05-29,155.59144226540175,156.41952463373346,154.59577287317205,156.0843505859375,232100
2025-05-30,155.99563159879617,156.52796596940533,154.31973126540694,156.15335083007812,335100
2025-06-02,155.30553295861694,156.81384612191334,153.0578724238055,154.68447875976562,349600
2025-06-03,153.9648340363994,155.20697261718047,153.78739426335522,154.043701171875,397800
2025-06-04,154.2704388516904,154.30001214509375,148.15836414730086,148.27667236328125,831900
2025-06-05,149.43008223768163,151.1651140408049,146.9359674396561,150.32717895507812,482400
2025-06-06,152.1804916708798,152.28893208998258,150.05113941579197,151.13552856445312,264700
2025-06-09,150.544055582443,151.007375533086,149.21319719105352,149.44979858398438,388400
2025-06-10,150.00187555238352,150.82995798605992,148.72031080938757,150.3666229248047,323500
2025-06-11,150.82994254149838,151.4115707359019,149.4498052933599,149.7652587890625,380800
2025-06-12,149.26250889760814,152.42697205417795,149.26250889760814,152.1608123779297,337200
2025-06-13,150.829935873921,151.53972501083467,148.59212803830783,149.0160369873047,361200
2025-06-16,149.09491396311157,150.7313581523707,148.97660573756926,149.5385284423828,346200
2025-06-17,148.52313648415543,149.11461743433793,147.01483824975645,147.33029174804688,379700
2025-06-18,147.00497623832817,148.59214167031755,147.00497623832817,147.57675170898438,383200
2025-06-20,148.1583603569541,148.63156312403586,146.87681089594898,148.16822814941406,570500
2025-06-23,147.3697197894407,151.75660037829923,147.3697197894407,151.6087188720703,356500
2025-06-24,152.37767518899636,152.37767518899636,151.0073757093355,151.68759155273438,246600
2025-06-25,151.67773528253588,152.33823056724884,150.60319885109388,151.74673461914062,264700
2025-06-26,152.33824953068293,153.37336004754195,150.94824440925422,152.28895568847656,658200
2025-06-27,152.46640393058135,153.89583503865111,152.04249495674745,153.60995483398438,643100
2025-06-30,153.81695259670582,154.28028757107535,152.4170949235091,154.21127319335938,315500
2025-07-01,154.2112909513434,157.53350328229894,153.7479709659874,156.75469970703125,338300
2025-07-02,156.76454757320462,158.25312510648516,156.39978523117895,158.04611206054688,293500
2025-07-03,158.32215846518048,159.0713736966319,157.55322268905795,158.7559051513672,235100
2025-07-07,158.66717993630388,160.0670377135844,158.27285931033134,158.6770477294922,313900
2025-07-08,158.61788810431491,160.2740678475626,157.58279268744894,157.7799530029297,342700
2025-07-09,157.66162256797776,157.74048969153264,155.85759164523577,157.46446228027344,252800
2025-07-10,156.93215349895374,158.08555716392323,156.0843505859375,156.0843505859375,361600
2025-07-11,156.31107345675375,156.31107345675375,154.40845469060778,155.66043090820312,292000
2025-07-14,154.9112304114943,156.6857034201191,154.46761591993024,155.3252716064453,276600
2025-07-15,155.50270521521296,155.7590120983507,151.8847603468732,151.97348022460938,254200
2025-07-16,151.73689710833995,153.4029296552156,151.37214976104823,152.7818603515625,261900
2025-07-17,152.54527396427014,154.19158596606755,152.31852530407468,153.8169708251953,397700
2025-07-18,154.62533756237983,154.98023213510643,152.72270372898328,154.16200256347656,243100
2025-07-21,154.20143682439874,154.44789098408017,153.03818041103906,153.2451934814453,205900
2025-07-22,153.8958183896831,157.09972209739536,153.0282950337299,156.91241455078125,449900
2025-07-23,157.7996815698846,159.55443403890214,156.88286424485372,159.36712646484375,450500
2025-07-24,159.11996916058192,162.4020082574344,157.96333091025235,159.9701385498047,431900
2025-07-25,160.19750774667867,161.22561221674488,158.94202169024894,159.14962768554688,296300
2025-07-28,159.35722424092228,160.12830639187274,156.35198291982778,156.88580322265625,308500
2025-07-29,157.23180681567746,157.7755224517839,155.4227248360997,157.0044403076172,388200
2025-07-30,156.98465159805863,157.11315522177728,153.14900170497543,154.99761962890625,580700
2025-07-31,153.99917438750097,155.55123391765005,153.4060273513415,155.3436279296875,679700
2025-08-01,155.1755793394096,156.31242693918023,139.47710868616434,139.73414611816406,1012300
2025-08-04,141.4838983520282,141.4838983520282,135.51295211602235,137.53952026367188,839000
2025-08-05,137.7471203907678,139.4573546226765,136.1159885271504,138.6170654296875,540800
2025-08-06,138.70603871474566,139.1508915064958,135.97759518556805,136.95626831054688,515300
2025-08-07,138.2018575966745,139.87254051260254,137.32203237332467,138.88397216796875,564000
2025-08-08,139.08169477744622,140.42614844511056,138.97295164681316,139.14100646972656,428700
2025-08-11,139.71437362843554,140.00105182700324,137.60871811175764,138.27105712890625,349500
2025-08-12,138.61704399688827,139.47709356461323,137.63835597942716,137.885498046875,286100
2025-08-13,138.09311785531034,139.82311250076222,137.65814535952828,139.81321716308594,729900
2025-08-14,138.58740244327777,138.58740244327777,134.8802710493718,136.758544921875,875800
2025-08-15,136.77831584476164,137.36156754391794,136.29391192878876,137.1342010498047,770500
2025-08-18,137.30225854285285,137.97449286968606,135.7798699097183,136.31369018554688,529500
2025-08-19,136.6893602194093,138.9136391735608,136.6893602194093,137.9942626953125,333100
2025-08-20,138.31061475109956,139.63529284706667,137.6680362112774,139.5660858154297,519200
2025-08-21,139.02237682659523,140.27784781496257,138.6368357597722,139.03225708007812,270400
2025-08-22,139.64516235050763,141.691506114476,139.5759704085548,139.81321716308594,356500
2025-08-25,139.35848463440877,139.99116778923627,137.3714676366746,137.964599609375,245800
2025-08-26,137.4802014096915,138.5577372418402,136.43230633558758,138.11288452148438,442900
2025-08-27,137.4999575948114,138.9630495009008,137.4406459118749,137.84596252441406,729100
2025-08-28,138.56762766903606,138.56762766903606,135.8292890396428,137.30226135253906,320800
2025-08-29,137.57905461233506,138.2710494362034,136.76843641419092,137.67791748046875,370700
2025-09-02,135.84904971762435,136.94636109960283,134.6133393813583,134.85060119628906,310600
2025-09-03,134.5243943101381,134.62324210292473,132.9031426817368,133.67422485351562,382300
2025-09-04,134.79130216014153,136.8969425133348,133.49626493537275,136.87718200683594,401800
2025-09-05,137.43077574465525,139.21020178510477,136.0566663464884,137.03533935546875,440800
2025-09-08,137.005687591299,138.3995726215184,136.1060867490136,136.71900939941406,616100
2025-09-09,136.67946624256135,137.88552093868483,133.55560145550504,135.48330688476562,637100
2025-09-10,134.5738357125756,135.88863363727893,133.30846923010407,134.6924591064453,685100
2025-09-11,135.18672513791338,136.6992335433112,134.31678014184178,135.53273010253906,477500
2025-09-12,135.05820672958419,135.4832989752159,133.67421703664533,133.68409729003906,261300
2025-09-15,134.41564821558472,134.6133588811563,133.09097016346266,133.30845642089844,298000
2025-09-16,133.2491251648004,133.8719280705481,132.56702565416762,133.66433715820312,474800
2025-09-17,133.87191960070743,135.5030663734287,132.65598479511914,133.1107177734375,377400
2025-09-18,133.35786944137865,133.9608967611341,132.53737095397892,132.9624481201172,254800
2025-09-19,133.12062346030297,133.5555959668464,131.81570594067267,132.90313720703125,877200
2025-09-22,132.58679434770661,133.39742770900972,131.1533731265575,131.2028045654297,402100
2025-09-23,131.48947627590215,132.41873297707602,130.46137178622766,130.51080322265625,319700
2025-09-24,130.49103409799787,131.7860563410793,129.83857530726212,129.9967498779297,353300
2025-09-25,129.99674318999885,131.0050871706818,128.7808082948073,129.32452392578125,388700
2025-09-26,129.82867757462216,130.91609366176084,129.4629121280084,130.77769470214844,274400
2025-09-29,130.88645346701895,131.16325141933544,129.85834894189443,130.75794982910156,540600
2025-09-30,130.20434429084327,132.23089734514227,130.20434429084327,132.13204956054688,310400
2025-10-01,131.80581420869075,132.82403835835518,130.7974703117304,132.60655212402344,310100
2025-10-02,132.1320554290962,132.85370613455356,131.44006056877018,131.65753173828125,398500
2025-10-03,130.95565622479634,132.0529677443783,130.91610504183745,131.69708251953125,402000
2025-10-06,131.37085466398543,131.67730845586786,129.90777764901935,130.37240600585938,447100
2025-10-07,130.59976556964224,130.99518687665005,128.32605534345748,129.09713745117188,438800
2025-10-08,129.68039176507327,130.50090532374472,128.77091067319023,130.10548400878906,361300
2025-10-09,130.19444872342635,131.32141603944422,128.71159619791044,129.11691284179688,554200
2025-10-10,129.4431381350315,130.5008983927555,128.40513838295638,129.43324279785156,426000
2025-10-13,129.49258620457584,130.8370398948493,128.67207258406597,128.73138427734375,311400
2025-10-14,128.55343940983934,129.5617834901798,127.56487092285874,128.31619262695312,337400
2025-10-15,128.31618340743444,128.8994351526004,126.39835826699053,126.6356201171875,438300
2025-10-16,126.97171654630597,128.0195965446806,126.38845731965263,127.68348693847656,352700
2025-10-17,127.68349986264782,128.61275658450555,127.37704606806854,127.86143493652344,339700
2025-10-20,128.12835965793974,128.6028682986525,126.55653941508275,128.51390075683594,240500
2025-10-21,129.11691341640903,130.2636563281568,127.64394113747322,129.07737731933594,311600
2025-10-22,129.1564481138655,130.59976453326686,128.49410913348765,128.5731964111328,357500
2025-10-23,128.73197123448563,130.50805690169727,128.65259098954968,129.75396728515625,378600
2025-10-24,129.73411268037526,129.87302431778892,127.54127703952456,127.87864685058594,489300
2025-10-27,128.1366224648553,128.89071205489756,127.45198112404552,127.7794189453125,521700
2025-10-28,127.74965710905877,128.10686063940022,126.47960347678546,127.1047134399414,413500
2025-10-29,126.29107194406481,126.50936382227088,122.46106236313027,123.34414672851562,651100
2025-10-30,123.0762548978033,124.54475159294849,122.08402453671503,123.39376831054688,702600
2025-10-31,114.39423553008093,117.18240033192052,102.42794018569283,115.108642578125,2758200
2025-11-03,115.18801418737364,115.18801418737364,107.44862223530946,112.24109649658203,1661000
2025-11-04,113.47146370471108,115.09872087701821,111.65568034301285,113.29286193847656,1029100
2025-11-05,113.44169462480497,115.13840756841266,111.89381017352693,114.67205810546875,896900
2025-11-06,114.12632587945619,116.05125508565277,112.91581127124762,115.24755096435547,880300
2025-11-07,115.32693339499808,116.01156716794395,113.79889779417432,115.31700897216797,697200
2025-11-10,115.08879219606841,115.86273063108003,113.11425598749823,115.47576141357422,514000
2025-11-11,116.05125494853503,118.58144524090463,116.05125494853503,117.35107421875,484800
2025-11-12,117.42052991643766,118.74019803055835,116.99387815530137,117.24193572998047,547500
2025-11-13,117.38085119077797,120.93303002263367,117.38085119077797,119.26608276367188,679400
2025-11-14,118.8394216459119,119.75227929014665,117.47014653473461,117.68843841552734,521200
2025-11-17,117.56937122538191,118.56160156840677,116.65652112662708,118.41276550292969,820200
2025-11-18,118.73028226930452,119.1767828797841,117.14270772067383,118.38299560546875,817400
2025-11-19,118.5814455351289,118.5814455351289,116.79542796312874,117.08317565917969,598900
2025-11-20,117.08317313835506,118.68066449610633,116.45807078667181,117.6586685180664,507400
2025-11-21,117.21216086173891,121.29022793939164,117.21216086173891,120.57582092285156,509100
2025-11-24,119.91102909425057,121.44898907258941,119.5042186116015,120.52621459960938,740000
2025-11-25,121.45891525209124,123.11593804438662,121.45891525209124,122.48091125488281,543600
2025-11-26,122.06416725085363,123.55251268958358,122.06416725085363,122.84803009033203,538000
2025-11-28,122.66943052847252,125.10039933060551,122.66943052847252,123.78073120117188,315700
2025-12-01,123.90971816318398,123.9890984046682,122.07409360703122,122.32215118408203,536800
2025-12-02,122.80834273936739,122.8976474041654,119.86142506313116,120.65520477294922,325400
2025-12-03,120.50637218565886,123.29454459847216,120.46668963362305,121.11163330078125,543100
2025-12-04,121.25053931737644,123.11593712141129,120.9826404679227,121.07193756103516,708000
2025-12-05,121.0421717426921,122.55036603254122,119.6828210814482,120.96279907226562,537000
2025-12-08,119.98048683677486,121.15131890116776,118.37307858523162,119.13709259033203,496600
2025-12-09,118.67074319979267,118.91880077653559,114.46368881786525,114.82089233398438,640300
2025-12-10,115.26739038159026,116.88473059087394,114.23546997686611,116.2596206665039,734700
2025-12-11,117.04348695770692,117.74796957239353,116.2497072483959,117.09310150146484,389700
2025-12-12,117.59913070053165,120.69489193216835,116.7358951926614,120.52621459960938,656400
2025-12-15,120.53613763713133,121.508519071394,119.54390735802136,121.37953186035156,588600
2025-12-16,121.71688801826957,122.88772006482098,118.59136108661724,121.87564849853516,644800
2025-12-17,121.16123927977195,123.63189054068698,119.14701303616661,122.66942596435547,567300
2025-12-18,122.70911937736454,123.15562755440962,121.08186229106413,121.66728210449219,457100
2025-12-19,122.38168448192317,123.36399795279324,120.31785116207733,120.44683837890625,1300400
2025-12-22,120.44683702770696,122.73888662712453,120.1293236305144,121.78634643554688,527800
2025-12-23,121.91534038479175,122.07409329724082,120.37738038293297,121.2406234741211,311700
2025-12-24,121.57797277960053,122.21299954160835,120.8139588087873,121.7962646484375,198000
2025-12-26,121.41922894554897,122.52060522415447,120.77427771310445,122.29238891601562,306000
2025-12-29,122.33207341633238,123.34414498172643,121.36960882339034,122.25269317626953,400200
2025-12-30,121.8458854019756,123.3342308707125,121.46883303835433,121.78634643554688,289800
2025-12-31,120.57582164498164,122.37176361957204,120.40714431232067,121.01240539550781,314300
2026-01-02,120.79411100995517,122.04432327040651,119.84157085869765,121.58789825439453,295100
2026-01-05,120.81396333104647,123.61205247154165,120.81396333104647,122.04432678222656,435700
2026-01-06,121.2703893294616,121.89549169761267,119.17678277613919,119.62328338623047,777200
2026-01-07,119.73242778357526,121.0024813489251,116.69620550577852,119.50421905517578,478500
2026-01-08,118.98826090452039,122.41146012961788,118.59136725333443,121.48868560791016,330000
2026-01-09,121.13148146291526,123.9990265337246,120.51629592819934,122.88772583007812,429100
2026-01-12,123.0365583546262,124.32646078477775,122.02448676997972,124.15777587890625,477300
2026-01-13,124.07840343065625,124.46537264637453,121.58790323017156,122.54044342041016,351900
2026-01-14,123.1457089980577,126.1720145851002,123.1457089980577,125.86441802978516,611700
2026-01-15,126.15215809530929,126.23153833510459,123.5525120178855,124.13793182373047,381000
2026-01-16,123.03656046752509,124.22723383109965,122.28246329986567,123.74104309082031,363400
2026-01-20,123.92956647771405,124.55466884396232,122.4809111423571,122.85795593261719,275100
2026-01-21,123.34414579788033,124.64397263463209,122.93733531257004,124.03871154785156,421000
2026-01-22,124.07840219082979,125.42783600604635,123.09608874217598,123.5029067993164,369700
2026-01-23,123.37391303470616,125.29884225734148,122.90757114819523,125.0210189819336,429500
2026-01-26,125.43775721229031,126.00332820078921,124.12801347207618,125.36830139160156,315400
2026-01-27,123.9791728132312,125.3186897727715,123.205234391347,123.77080535888672,303100
2026-01-28,123.235006777915,124.09824991001042,122.29239097089199,122.7388916015625,347800
2026-01-29,123.32430960117436,124.30661551602421,121.63751348474041,122.88772583007812,386000
2026-01-30,121.95503612712301,124.03871835108907,121.70697853926713,123.97917938232422,512700
2026-02-02,123.23499750184895,124.93171793896286,123.23499750184895,123.860107421875,489100
2026-02-03,122.94725978548665,126.93602225021577,122.72896790883826,123.66165924072266,658700
2026-02-04,125.21552867481128,129.90700134775133,124.20949930267037,128.7216796875,589400
2026-02-05,127.16782066467043,128.5722782146923,121.48028130551128,123.49234008789062,2144200
2026-02-06,127.02836268310486,135.45509216979158,127.02836268310486,133.7816925048828,1045700
2026-02-09,133.05457384055362,139.02101804829903,132.72587004959905,137.9253387451172,1043400
2026-02-10,137.26793457923543,140.37565748193367,137.26793457923543,139.61865234375,622100
2026-02-11,138.48313331396238,139.99715874839507,138.05483198642824,139.4592742919922,584300
2026-02-12,139.60869173387061,141.44145054391814,138.84171623230802,139.95730590820312,572700
2026-02-13,139.9573151020267,142.3677944950846,139.85771755943315,142.01918029785156,471900
2026-02-17,138.71222079286514,143.055071512211,138.71222079286514,141.0928192138672,614700
2026-02-18,140.9135352437976,142.54708376856578,140.2860084572567,141.1625518798828,582000
2026-02-19,141.0928230678908,142.7562676088946,140.4752666602554,142.59689331054688,525500
2026-02-20,142.55704525117903,144.56910401516237,141.44145553591065,144.47946166992188,664500
2026-02-23,142.9255958993581,145.6647789342487,142.5670113304762,145.14682006835938,513500
2026-02-24,145.49544486452967,146.33213709933392,143.28417595914058,143.57302856445312,429800
2026-02-25,141.8498473766502,143.0949306198296,139.87762457633954,142.1187744140625,348900
2026-02-26,142.95547535989397,143.35389589996325,140.44538340090327,141.23226928710938,331300
2026-02-27,140.97329664666827,143.44353741820976,140.44538259466083,143.1447296142578,344600
2026-03-02,142.43751420451355,142.78614357053576,141.06293752550724,142.1088104248047,335000
2026-03-03,140.08679425249235,140.76412738697488,136.38142559574294,139.2102508544922,347300
2026-03-04,138.79191754238275,138.9612470419286,135.47501391314069,136.50096130371094,389000
2026-03-05,135.46505150535157,135.80371048641027,133.88130933030985,134.20004272460938,452300
2026-03-06,133.47291651624107,133.47291651624107,130.48471689274314,131.5604705810547,398500
2026-03-09,130.45484354440993,133.45299853256722,127.02837201579013,133.22390747070312,545700
2026-03-10,132.82547764917305,133.60240832546756,130.88313575966777,131.6102752685547,503100
2026-03-11,131.2815812945587,132.75575561111177,129.5284943463408,131.50071716308594,563800
2026-03-12,130.7536581494707,132.26766833775483,128.13399830193273,128.35313415527344,620600
2026-03-13,129.6380511924889,129.6380511924889,126.55025410703881,128.14395141601562,660600
2026-03-16,128.97069022910543,130.8931065380538,125.50438295551326,128.54238891601562,370700
2026-03-17,129.45876833048925,130.50464122844355,127.73557748644285,128.99061584472656,276700
2026-03-18,123.89075860801685,126.08210964583039,120.94240244020646,123.73139190673828,910500
2026-03-19,122.52615308632394,124.32903117833895,120.97228404186016,123.48237609863281,518500
2026-03-20,123.77123411184346,123.77123411184346,119.83676660084556,120.58381652832031,1481500
2026-03-23,123.02418368013113,125.84304628604973,122.50622481021608,123.65170288085938,455200
2026-03-24,122.67556308818467,124.72745780194329,122.38670286935901,123.66166687011719,405000
2026-03-25,124.94659356774676,126.07214606142944,123.22339504970952,125.3250961303711,337200
2026-03-26,124.72746089618293,126.83911722505529,123.6317891558115,124.19954681396484,442100
2026-03-27,123.45249678230496,123.72143142045898,121.28107129127055,121.51016235351562,381400
2026-03-30,122.07791483255923,123.45249154525831,120.62365857080745,122.87477111816406,562000
2026-03-31,123.90072145898677,126.46061226934556,123.1038651540704,125.52430725097656,557800
2026-04-01,126.83910993884153,128.13399948450484,125.83308820196113,126.25143432617188,380200
2026-04-02,124.64777023751822,126.5900970135599,123.76127159620845,125.51435089111328,297500
2026-04-06,124.0999305830527,125.6936431780852,124.0999305830527,125.51435089111328,461100
2026-04-07,124.82706080661809,126.6697824199569,124.30910953992999,125.11592102050781,376900
2026-04-08,130.86323514521675,132.1481543754263,127.64592907491694,131.50071716308594,645200
2026-04-09,130.70386349661462,131.91906599267529,126.83912013545304,130.88314819335938,424100
2026-04-10,131.7298075164679,132.178034445579,130.3353203595067,130.98275756835938,407400
2026-04-13,130.28551770076956,131.89914077103793,127.07818194963497,131.59036254882812,396300
2026-04-14,130.71381054193466,132.197955189354,130.45483870763653,130.4946746826172,315500
2026-04-15,130.29547082253353,130.51460669263554,128.0941721257409,129.14002990722656,407100
2026-04-16,126.40084558822308,129.81735412824597,126.40084558822308,127.78536987304688,393800
2026-04-17,129.14002424182965,131.7796097617975,129.14002424182965,130.11618041992188,401100
2026-04-20,130.05641512792803,131.47082778766443,129.1499909308814,130.405029296875,403600
2026-04-21,130.18589466096142,131.72980084865796,126.1916732788086,126.1916732788086,310200
2026-04-22,126.77935427393615,126.77935427393615,122.47634691200882,124.06009674072266,458900
2026-04-23,124.88682675562279,126.93872910578784,123.95052932532681,124.44856262207031,440800
2026-04-24,123.9206456254592,123.9206456254592,122.08787918491913,123.5919418334961,440900
2026-04-27,123.55209914216728,125.73348737793874,123.05406585359005,124.23938751220703,359700
2026-04-28,125.62392082821759,126.15183490401432,123.23335949687649,125.2752914428711,354300
2026-04-29,124.64776713863216,125.4047798425139,122.30701227202618,122.41658020019531,448400
2026-04-30,122.94449532386469,125.58407321741664,121.40058912214994,123.19351196289062,764800
2026-05-01,126.70962950793603,127.97463072857443,117.4362520229959,118.55184173583984,989400
2026-05-04,118.21317963909578,121.27110367417347,116.9979772200526,120.12562561035156,739600
2026-05-05,120.42445055667139,123.22339520339091,120.34476340674007,121.55000305175781,628600
2026-05-06,123.18000030517578,126.38999938964844,121.66999816894531,122.62999725341797,917000
2026-05-07,122.94000244140625,126.47000122070312,122.56999969482422,125.11000061035156,749700
2026-05-08,125.2300033569336,125.86000061035156,120.38999938964844,120.98999786376953,794900
2026-05-11,121.22000122070312,121.22000122070312,119.44000244140625,119.95999908447266,706100
2026-05-12,120.44999694824219,120.86000061035156,117.13999938964844,118.05000305175781,696600
2026-05-13,118.0,118.75,116.43000030517578,117.87999725341797,679500
2026-05-14,118.7300033569336,120.16000366210938,117.04000091552734,117.98999786376953,531000
2026-05-15,117.91000366210938,117.91999816894531,114.47000122070312,114.66999816894531,447000
2026-05-18,115.5999984741211,117.31999969482422,115.16999816894531,115.80999755859375,433100
2026-05-19,115.88999938964844,116.04000091552734,112.44999694824219,113.61000061035156,575800
2026-05-20,114.06999969482422,115.44999694824219,111.55000305175781,115.26000213623047,562600
2026-05-21,116.5,116.5,112.7699966430664,115.51000213623047,345600
2026-05-22,115.80000305175781,116.80000305175781,114.70999908447266,116.2300033569336,405800
2026-05-26,116.19999694824219,116.97000122070312,115.37000274658203,116.37999725341797,344500
2026-05-27,116.94000244140625,118.11000061035156,114.7300033569336,115.30000305175781,464000
2026-05-28,114.80999755859375,116.33999633789062,113.3499984741211,115.98999786376953,510100
2026-05-29,115.05999755859375,117.26000213623047,113.75,115.8499984741211,559600
2026-06-01,114.69000244140625,115.12999725341797,112.02999877929688,112.37999725341797,706800
2026-06-02,111.94999694824219,113.05000305175781,111.23999786376953,112.18000030517578,452400
2026-06-03,111.69000244140625,114.0199966430664,111.69000244140625,112.52999877929688,372600
2026-06-04,114.94999694824219,115.76000213623047,111.54000091552734,112.55000305175781,337600
2026-06-05,113.08999633789062,114.58999633789062,111.9800033569336,113.36000061035156,466300
2026-06-08,112.26000213623047,112.63999938964844,110.94999694824219,111.94000244140625,422200
2026-06-09,113.27999877929688,116.1500015258789,112.66999816894531,115.9000015258789,444400
2026-06-10,116.1500015258789,116.55000305175781,113.37000274658203,114.66999816894531,496800
2026-06-11,115.11000061035156,117.01000213623047,114.26000213623047,116.58000183105469,395200
2026-06-12,117.9000015258789,118.47000122070312,116.37999725341797,117.72000122070312,342600
2026-06-15,118.69999694824219,120.73999786376953,117.55999755859375,118.08000183105469,576100
2026-06-16,118.5,121.05000305175781,113.7699966430664,120.6500015258789,474700
2026-06-17,121.62000274658203,122.3499984741211,119.45999908447266,119.98999786376953,680500
2026-06-18,120.45999908447266,122.36990356445312,119.11000061035156,120.31999969482422,366120
