Date,Open,High,Low,Close,Volume
2023-08-15,117.956378960936,118.24494843378245,117.33115733414623,117.43695831298828,249000
2023-08-16,117.09068198773566,118.46618273823462,116.85982348038,116.90792083740234,291100
2023-08-17,117.31192390823612,117.98525028051871,116.9848853314969,117.00411987304688,186600
2023-08-18,116.75399923570934,118.71625224874126,116.75399923570934,118.5912094116211,443100
2023-08-21,118.45656631277183,119.71663785760668,118.36999253455805,119.06255340576172,358800
2023-08-22,119.14912600366445,120.9189972448731,118.08142922757334,118.2641830444336,429600
2023-08-23,118.36999112470143,118.85093535301714,117.64857478222787,118.68741607666016,305000
2023-08-24,118.78360359604675,120.67852503204736,117.91790251632227,120.34186553955078,278400
2023-08-25,120.78433122188993,122.81391641913827,120.21682056433897,122.67925262451172,493000
2023-08-28,122.76580652372049,124.64149319495958,122.76580652372049,124.47797393798828,331900
2023-08-29,124.85314633611203,126.93082928658426,124.46838208014184,126.7961654663086,472400
2023-08-30,127.32516182662812,128.18124190891766,126.68069836488225,127.82534790039062,298900
2023-08-31,128.20046476681168,128.63331154379753,127.20010744494996,127.50790405273438,305800
2023-09-01,128.0273554739826,128.69104615956167,127.46945842518569,127.4983139038086,252000
2023-09-05,126.66145382399552,126.95002327114638,122.50610368767913,122.70809936523438,325300
2023-09-06,122.91973444391063,123.13134375316237,121.39032788609514,121.59233093261719,291100
2023-09-07,121.47687760395863,122.32333668916188,120.370704561035,120.58232116699219,328600
2023-09-08,120.72663045964072,121.84241732915419,120.35149452312415,120.53424835205078,238800
2023-09-11,122.15020697473304,123.05438442733607,121.59231727500303,122.16944885253906,333500
2023-09-12,121.30375701204977,122.43878571398,120.6400516113284,121.70774841308594,258000
2023-09-13,120.98633519332367,121.76546253535643,120.34187165513295,120.59196472167969,279300
2023-09-14,121.20757682104502,122.44841391665081,121.20757682104502,121.92899322509766,217900
2023-09-15,121.66927042883084,122.35221036140925,120.39957794288019,121.130615234375,589200
2023-09-18,121.54421485235763,121.54421485235763,120.15909325311112,120.85165405273438,175100
2023-09-19,120.89977068715814,120.89977068715814,119.33188769946509,120.53424835205078,218600
2023-09-20,121.04403393623863,121.29412697753905,119.81281794618458,119.8801498413086,206200
2023-09-21,119.5915814853835,119.61081602357613,117.53314098335909,117.56199645996094,335700
2023-09-22,117.66782656355645,118.21610273643255,117.45620991110827,118.00448608398438,341200
2023-09-25,117.34076318501396,119.3992037620622,116.84058444889169,119.31263732910156,258800
2023-09-26,118.82208002776298,119.48578541206082,118.53351789357484,118.88941192626953,547000
2023-09-27,119.31264031088143,119.70701074637915,118.18723262251139,118.81245422363281,362400
2023-09-28,119.13950746199725,120.85166777851079,118.56237584297187,120.68814849853516,219300
2023-09-29,121.6692483364324,121.99629417270116,120.0340411709645,120.2745132446289,330900
2023-10-02,119.78395548707734,120.69775382607703,119.26453489555266,120.28414154052734,244100
2023-10-03,119.29339108402293,120.5342279480784,117.82170306856494,118.18722534179688,236300
2023-10-04,118.84129989256658,119.90899647012523,117.66779501715077,119.4953842163086,208200
2023-10-05,119.23567180816706,120.16870462568477,118.11988520541539,119.03367614746094,466700
2023-10-06,118.89904015009564,121.86165854314395,118.6874235022169,121.59233093261719,491700
2023-10-09,121.02480176411956,122.3714470315645,120.89975891033677,122.10211944580078,275700
2023-10-10,122.3906804082069,123.70847018445957,121.68850597179858,121.71736145019531,322000
2023-10-11,122.66963195800781,122.83315123204267,121.82317277009818,122.66963195800781,212900
2023-10-12,122.37143953710256,122.54457973715071,120.29375713652479,120.6400375366211,189300
2023-10-13,121.19793811935457,121.842401584592,120.6208065484162,121.16908264160156,324900
2023-10-16,122.50611121132462,122.57344310797819,121.36146162958764,121.8808822631836,275200
2023-10-17,121.20754405224291,123.44873816422995,121.20754405224291,122.62152099609375,314400
2023-10-18,122.03478544306672,122.80429176930639,121.46726746403726,121.94821166992188,287300
2023-10-19,121.27489954662221,122.61192392718466,120.61119415676508,120.93824005126953,443900
2023-10-20,121.1306013926972,121.65964292581712,117.28304795510005,117.56199645996094,446500
2023-10-23,117.08107007558768,118.46619187200963,116.59050488291709,116.86945343017578,379000
2023-10-24,117.4754210963126,119.0529173972163,117.08105069039952,118.6393051147461,312100
2023-10-25,118.15677276144453,119.4596516517281,117.63561973271062,118.09886932373047,431300
2023-10-26,117.02761412299786,121.0134603739244,117.02761412299786,119.12187194824219,576000
2023-10-27,119.16046741363326,119.51754841038496,116.1590166748117,116.94074249267578,364000
2023-10-30,117.66457150071054,118.0506115995379,116.63191847013125,117.90584564208984,283100
2023-10-31,118.23398596724621,118.60072002279092,117.57771998783277,118.00235748291016,422900
2023-11-01,117.84793391063505,119.12186099293919,117.36538566183647,118.63931274414062,360500
2023-11-02,119.40173736847875,119.95184206610242,118.68756803683264,119.2666244506836,384300
2023-11-03,120.08697401221825,121.57322370656975,120.08697401221825,120.97486114501953,278000
2023-11-06,120.89764432950582,121.34159523213705,120.39579735185238,120.82044219970703,173500
2023-11-07,120.27033814314946,120.62741916445184,119.8360402653971,120.2027816772461,205000
2023-11-08,120.52125543592591,121.10996492498091,120.06766623895945,120.75288391113281,175800
2023-11-09,121.30298351927328,121.30298351927328,119.73952451177246,120.04835510253906,118600
2023-11-10,119.90359356052024,121.3994961613825,119.5658112399359,121.33193969726562,195600
2023-11-13,121.01344761610507,121.10031012853287,120.02905244156845,120.18346405029297,183100
2023-11-14,121.5538961259544,123.39723389784527,120.9362349809369,123.38758087158203,267400
2023-11-15,123.35864839876807,124.304446316357,122.90505181396026,123.25248718261719,388600
2023-11-16,123.19457641995044,124.13071389102679,122.41284320538445,123.09806823730469,217000
2023-11-17,124.07282146383467,124.57467583908908,123.15598260268955,123.46481323242188,162700
2023-11-20,123.00154326553826,123.19456697914006,122.01714809702534,122.87608337402344,213900
2023-11-21,123.0112053695368,123.82189030028484,122.76027820488832,123.44550323486328,160600
2023-11-22,123.96664452975432,124.69046691672392,122.91469286164748,124.08246612548828,174800
2023-11-24,124.46849858209583,124.46849858209583,123.62886932734556,124.04385375976562,65900
2023-11-27,123.3586396115106,123.82188919108859,122.42249478837549,122.5672607421875,367500
2023-11-28,122.56726798434931,122.5769210120011,121.1099700592446,121.22578430175781,218000
2023-11-29,121.25472870985266,121.98820414200175,120.55985802288006,120.99415588378906,331800
2023-11-30,121.07135636226576,122.69271882208767,120.45369517405763,122.46109771728516,301000
2023-12-01,122.00749831802362,124.05349819494825,122.00749831802362,123.62886810302734,218300
2023-12-04,123.00155352374544,124.38164926101614,122.46110180679085,123.93769836425781,192000
2023-12-05,123.7736188019192,124.19826359298767,121.48633758152975,121.59249877929688,178000
2023-12-06,121.9785424640825,122.8567837875821,121.48634120186732,121.95924377441406,179500
2023-12-07,121.8337762366514,122.67341281575474,121.5925021192989,122.0750503540039,254000
2023-12-08,121.94959163804015,123.04980103471416,121.23542230546796,122.87608337402344,265800
2023-12-11,122.81818541054639,123.22352418250709,121.93029101464404,123.11736297607422,338000
2023-12-12,123.19456695353703,123.62886478672449,122.25842219129277,123.03050231933594,210300
2023-12-13,122.7409936596384,124.48782362323088,122.7409936596384,124.10177612304688,425000
2023-12-14,124.57465522525729,125.47218788178063,122.45143855446896,122.95329284667969,412900
2023-12-15,122.72166934150299,124.0921045470406,121.57320219834456,121.58285522460938,713000
2023-12-18,122.28737240572902,122.76992063905433,121.48634057126459,122.61550903320312,240500
2023-12-19,123.25248896561007,123.65783514364217,121.6311263427904,121.82415008544922,659100
2023-12-20,121.62146243272905,122.50935684330899,121.08101072784736,121.18717193603516,346400
2023-12-21,121.83379611512954,121.83379611512954,120.49231239282044,121.51531982421875,421900
2023-12-22,121.98821446560005,122.60587571449095,121.71798858959814,121.86274719238281,312200
2023-12-26,121.73728030157127,122.44180403483686,121.20647424478882,121.43810272216797,274700
2023-12-27,121.7179801620288,122.05576248364365,120.66602108831127,120.90729522705078,283100
2023-12-28,120.61776308128793,121.40914191198428,120.05800534752414,120.830078125,343600
2023-12-29,120.82045354087529,120.98451820636409,119.24734126853211,119.30525207519531,313500
2024-01-02,118.33048400507984,119.76847574725994,118.02165341555587,118.59105682373047,313100
2024-01-03,120.78183530676975,122.8181896264616,118.8516421971549,120.98450469970703,531700
2024-01-04,120.8107843913824,121.5249537647008,119.79743008568695,119.88429260253906,353300
2024-01-05,119.45964384127878,120.02905460628045,118.69721672111496,119.86498260498047,423000
2024-01-08,119.73952451966014,120.7914835515639,118.09886338668615,120.00975036621094,352400
2024-01-09,119.39208886536294,120.28962891792202,118.67791950665958,120.27997589111328,250300
2024-01-10,120.11591846241205,121.04241028792013,119.89395037419895,120.82044219970703,279600
2024-01-11,121.0038017297732,122.53830905966294,120.57916425839741,122.412841796875,323100
2024-01-12,123.42619088636619,123.50340037356722,121.52494960187714,122.01715087890625,231700
2024-01-16,121.48635575334917,122.39354890156476,121.1292747284493,122.38389587402344,257500
2024-01-17,121.54426685222283,122.8278397204519,121.49600907750106,122.2680892944336,336900
2024-01-18,122.87609292611428,125.47219764873277,121.90134334518042,124.632568359375,444200
2024-01-19,125.18269780321808,126.871617006182,124.05352171988879,126.23464965820312,418000
2024-01-22,126.33114430629186,127.20938578312573,126.00301498292735,126.61103057861328,266200
2024-01-23,127.19973938013392,127.24799715710307,125.78104614923554,127.22869110107422,217800
2024-01-24,127.50856564710675,127.67263031169915,125.98371116146367,126.21533966064453,294400
2024-01-25,127.4216965566274,127.75948624024079,125.82929313663216,126.6689224243164,332300
2024-01-26,127.08391965169312,127.96216113643406,126.81369376811224,127.10322570800781,219900
2024-01-29,126.47592771727686,127.96217018203362,125.93547591191077,127.63404083251953,187800
2024-01-30,127.42171837666753,128.44471854056866,127.03568558032238,127.63404083251953,228400
2024-01-31,128.14710349111215,128.53435148166193,125.03951776645216,125.7365493774414,537500
2024-02-01,126.29805168978267,126.9273093818835,125.47516261057311,126.3367691040039,298800
2024-02-02,125.81399845204739,126.54007181280666,124.58451009166825,125.94953155517578,344800
2024-02-05,125.01048880090507,127.25646828783212,123.96494127747282,126.48198699951172,319500
2024-02-06,126.3173980926261,127.20804630504496,125.17504976756723,126.94667053222656,369700
2024-02-07,127.21775641252626,128.1955300337722,125.24282830267967,127.5953140258789,393000
2024-02-08,127.44043027936515,130.53834117170376,127.34361456285279,127.90511322021484,620700
2024-02-09,127.8954242006926,134.76892573911803,127.31455950628941,134.5269012451172,650900
2024-02-12,134.72054103698298,135.98874723996204,133.12317023887528,133.21998596191406,491300
2024-02-13,132.32930021222504,132.9488822581375,130.67384635486445,131.59353637695312,275900
2024-02-14,131.9130184285909,133.07474776047272,130.8577952317336,132.7939910888672,335000
2024-02-15,132.7939713432345,133.4135533345092,130.27692596643098,130.73191833496094,471400
2024-02-16,131.05139603090558,133.5974980024858,130.7319219804335,133.1134490966797,453900
2024-02-20,132.76492924425213,135.66922259050702,132.580988302136,135.23358154296875,373000
2024-02-21,134.6430432067918,135.6401827546635,134.5559179504535,135.53369140625,276300
2024-02-22,135.9887045298492,137.87649236016304,135.60147130332354,136.95680236816406,295700
2024-02-23,137.44086687732337,137.5183164858138,136.1145774154304,136.85032653808594,190300
2024-02-26,136.985826270642,137.52795862593183,136.30816082652976,137.39242553710938,199200
2024-02-27,137.39245476737844,137.64415490816972,135.34009190799827,135.8338165283203,244600
2024-02-28,135.19483931355109,136.73412589940753,134.88505572774267,135.93060302734375,189600
2024-02-29,136.14360929042408,137.1117071682836,135.36912803373622,135.97903442382812,250600
2024-03-01,135.41752898322991,136.298486780481,135.10773058753682,135.81443786621094,151400
2024-03-04,136.20169440578695,137.5860672968912,136.07583695314057,137.43118286132812,260300
2024-03-05,137.73127267874108,138.64128693816335,137.21818204685397,137.97329711914062,190200
2024-03-06,138.3702046969849,139.05756060105247,137.93456366268825,138.50575256347656,184000
2024-03-07,139.89016108176327,140.50974321124528,139.25121285610905,140.03536987304688,250100
2024-03-08,140.09342907633237,140.44194485018238,138.40893370739082,138.5251007080078,185200
2024-03-11,138.23470289544156,138.80589192553307,137.4505459017938,138.18630981445312,226700
2024-03-12,138.24437886769354,138.29278671562085,136.9664825880185,137.8668212890625,242200
2024-03-13,138.43800441506068,138.43800441506068,136.43403460324666,136.65670776367188,336800
2024-03-14,136.8503260525416,137.10202620024066,135.88222810784958,136.4340362548828,235200
2024-03-15,135.57242007632507,137.86682208776077,135.2820025310812,136.50180053710938,599500
2024-03-18,136.4340127765464,136.79221899940188,134.49781722035388,134.81729125976562,299700
2024-03-19,134.44943456936542,135.84349784138894,134.44943456936542,135.059326171875,253000
2024-03-20,135.17551943672254,135.6014848917867,134.70114613049162,135.50466918945312,220000
2024-03-21,135.83380611845956,137.08266060945118,134.85603261400937,136.6373291015625,255800
2024-03-22,137.47959745135654,137.9055629528145,136.55023160454266,137.072998046875,276000
2024-03-25,136.69541504364804,139.4544998568,136.66637328957285,138.39927673339844,316300
2024-03-26,138.27341558365592,139.70619624368913,138.0701085385698,138.63160705566406,314200
2024-03-27,139.08659141008025,140.5193718351404,139.08659141008025,140.04501342773438,218200
2024-03-28,140.1999296948087,140.71302034415112,139.06724227584522,139.29959106445312,247800
2024-04-01,139.20277226974468,139.20277226974468,137.58605076159364,137.75062561035156,204400
2024-04-02,137.31500593788894,137.31500593788894,135.91126690307195,136.14361572265625,202600
2024-04-03,136.18234355557956,136.68575865051397,135.40786220306578,136.38565063476562,258700
2024-04-04,137.30533962645052,138.19598800416978,136.47277476458206,137.22789001464844,403600
2024-04-05,136.86968595043953,138.20565100866335,136.45339617162944,137.20851135253906,288300
2024-04-08,137.15040168122644,137.83775755940698,135.91123778625203,136.02740478515625,312500
2024-04-09,135.9403078901939,136.59862215595857,134.91412646050384,135.8338165283203,242600
2024-04-10,134.54623575653343,135.74668241469655,134.03314507512525,134.9528350830078,200700
2024-04-11,134.81729469576712,135.57240980016735,134.0331378390438,134.6914520263672,265300
2024-04-12,133.76208470665995,134.51719988484666,131.62259662579817,132.82302856445312,299200
2024-04-15,134.18803080372464,135.349745158721,133.43291573437705,133.79110717773438,319600
2024-04-16,133.3941894593336,134.94315184926018,132.9779144955909,134.16867065429688,281700
2024-04-17,134.44945414271976,135.03030407595662,133.93636338762582,133.98475646972656,565400
2024-04-18,133.9750418295626,134.99154738199303,133.8104669910927,134.6720733642578,246600
2024-04-19,134.62366344073803,135.45622805140553,134.34292160816344,134.8947296142578,276600
2024-04-22,135.09805115725143,136.64699877649178,134.80761886239384,135.84349060058594,298800
2024-04-23,135.31105737697965,136.65671296414016,135.06903288452628,135.67892456054688,417200
2024-04-24,135.88283187941434,136.8052204354619,135.58184333310518,135.9410858154297,559200
2024-04-25,135.7760094089554,137.14503597865468,134.8827479436081,136.1061248779297,694400
2024-04-26,137.87323164710924,144.19403432783037,137.77613189586884,139.16458129882812,489500
2024-04-29,140.68896186966708,143.71829961506626,140.17436572617285,142.12596130371094,676700
2024-04-30,141.50455876401378,141.85409715843193,139.87337465161463,140.18408203125,585100
2024-05-01,140.77634869572992,142.9318328954004,140.37826043918207,141.15501403808594,359600
2024-05-02,141.5239675984383,142.46577897675033,141.06762539181938,141.6793212890625,356500
2024-05-03,142.8347262098354,142.85414912308485,140.63069223929037,142.54344177246094,303300
2024-05-06,143.46583362092616,144.74747925029178,142.88327954740367,144.70863342285156,260200
2024-05-07,144.0096037848439,146.00973470152024,144.0096037848439,145.36891174316406,392900
2024-05-08,145.36889477978409,146.48546798558442,145.13586423611673,146.4077911376953,223500
2024-05-09,146.6116820419674,147.3204628465896,144.3105630316223,144.7474822998047,299100
2024-05-10,144.6212448665183,144.66979474057337,143.7862374049322,144.17462158203125,186300
2024-05-13,144.21346995257653,145.13585840929454,142.59200470826642,143.57264709472656,167500
2024-05-14,143.9901756525385,143.99987970355167,143.18429495809386,143.60179138183594,137600
2024-05-15,143.66003210063693,144.02897856662815,142.5046131956969,142.99978637695312,211100
2024-05-16,143.0871700529018,143.60176615776547,142.17448569624776,143.25222778320312,235500
2024-05-17,143.5532250739488,143.86391760755848,142.85414835414977,143.37844848632812,169500
2024-05-20,143.30079134207162,144.09696792166733,142.7667722722628,143.8639373779297,163400
2024-05-21,143.64063969473372,144.3591246810753,142.8153360686792,144.27174377441406,280400
2024-05-22,143.7668346921676,144.50474243328088,143.18426581237048,144.4658966064453,283300
2024-05-23,144.3396862943476,144.62125187296155,143.27164827475897,143.427001953125,171700
2024-05-24,144.1648896439771,144.50472391620215,143.0774436774011,143.78622436523438,162300
2024-05-28,143.32989260159044,143.4852462695525,141.5822156907114,142.44635009765625,318400
2024-05-29,141.41713379039427,142.43662179776277,140.31026490633886,140.63067626953125,229700
2024-05-30,140.91228668269574,142.70851373087208,140.78605995699684,141.89292907714844,328100
2024-05-31,141.8443657942061,143.5338036875814,141.6793080690731,143.3978729248047,358900
2024-06-03,144.18434827896806,144.18434827896806,142.0288639073479,143.85423278808594,266200
2024-06-04,143.35904679128393,144.07754653057066,142.43665828749494,143.88336181640625,287900
2024-06-05,143.42700061426063,143.89304682966602,142.80560072193944,143.62118530273438,229200
2024-06-06,143.7085664873753,143.7085664873753,141.17441703689698,141.71815490722656,197600
2024-06-07,141.53367596430135,142.07739902580767,141.22296860610217,141.320068359375,179100
2024-06-10,140.62100939036216,141.5725248682501,139.80542469502964,141.35891723632812,125800
2024-06-11,140.69864968580106,141.50453012134668,140.15492669684025,141.27149963378906,147700
2024-06-12,141.9900071614803,142.0579651312444,139.88307305333473,141.5919189453125,221300
2024-06-13,141.65017286663635,142.27157271965928,140.8054613767583,141.5919189453125,232400
2024-06-14,140.8734504649213,141.1550309006414,139.50442375003365,140.5433349609375,141500
2024-06-17,140.6598313540665,142.41722736375868,140.3685617068692,142.07740783691406,303800
2024-06-18,142.22305259413477,143.39789457614634,142.2133485436648,142.4269561767578,219900
2024-06-20,142.39781323867697,143.24252481049206,141.43657899757036,141.572509765625,199900
2024-06-21,141.6307756362361,142.8638715174382,141.0870525181657,142.58230590820312,444100
2024-06-24,142.9415237902204,143.92216604419272,142.4075048141597,142.4560546875,182900
2024-06-25,142.52403514640127,142.53375401180762,140.30059282386082,140.65013122558594,194500
2024-06-26,140.05783894105218,140.58213906374502,138.80533514968837,139.53353881835938,192400
2024-06-27,139.68890380859375,139.69862267447957,138.13541124732973,139.68890380859375,377300
2024-06-28,139.60152272147332,140.1258377569006,136.01875763564942,136.71783447265625,435100
2024-07-01,137.2712390056261,137.3683239304442,134.36812863283706,134.51376342773438,306400
2024-07-02,134.45554794058185,136.41684769271666,133.75647109458023,136.3197479248047,259400
2024-07-03,136.78582074468116,137.29069809808905,136.48483217986413,137.11593627929688,143300
2024-07-05,136.89257147209128,137.32949066493757,135.66917995371364,136.80517578125,207000
2024-07-08,137.53339169445843,138.35869510013967,137.38775688891062,137.3974609375,249300
2024-07-09,136.7663914889435,137.16447981154025,135.68864921029444,135.97021484375,238400
2024-07-10,136.65958343579476,137.51401399143685,136.4848216305105,137.1838836669922,142000
2024-07-11,137.09649774945188,139.13547429525167,136.65957843687883,137.96063232421875,244500
2024-07-12,139.2422698494713,141.2618233593471,139.2422698494713,140.38796997070312,263900
2024-07-15,140.5530072875592,141.4559875097571,138.98009215801966,139.26165771484375,319900
2024-07-16,139.66946784903956,141.07732529464843,139.66946784903956,140.35882568359375,178800
2024-07-17,140.14523913079555,141.5336886876332,140.14523913079555,140.65013122558594,242300
2024-07-18,140.40737409059614,142.97065035321154,140.39767004209162,142.02883911132812,434200
2024-07-19,142.32981907788866,142.32981907788866,140.45591556995473,141.69871520996094,251200
2024-07-22,141.74729152284237,143.2716569904321,141.0287918281976,142.91241455078125,235700
2024-07-23,143.572641002004,144.19404091845544,141.43657971516106,141.7958221435547,234500
2024-07-24,141.82499940522254,142.3687226162319,139.71804973954175,139.95108032226562,250600
2024-07-25,139.1134168154453,140.30167233708127,137.54531009340042,137.80828857421875,558100
2024-07-26,139.40562054037346,147.35327797180082,138.64591810105864,142.84376525878906,562800
2024-07-29,142.76586110666832,144.48980830931347,141.39254698148082,143.95411682128906,390900
2024-07-30,143.54504923709058,144.05150768530154,141.62630915801532,141.95745849609375,411000
2024-07-31,142.68793548619507,144.97679227316166,141.62630185383244,143.1554412841797,280600
2024-08-01,143.0580564170797,145.64882955447564,141.64577481833908,143.2041473388672,335300
2024-08-02,142.76584278576115,143.17491218000953,140.00948044813856,141.8990020751953,213500
2024-08-05,139.69779019041522,139.69779019041522,135.85057640594786,137.01934814453125,448500
2024-08-06,137.65245225788104,142.28858689391723,137.4381756914255,141.1587677001953,476000
2024-08-07,142.21065060341132,143.4281242007132,139.73675079285874,139.86337280273438,353600
2024-08-08,140.70101663202263,142.356778003838,140.70101663202263,141.7723846435547,268600
2024-08-09,141.62628524099554,141.62628524099554,139.73676366603377,140.2042694091797,263200
2024-08-12,140.22377593602033,140.42830322987103,139.05500395736158,139.56146240234375,221100
2024-08-13,139.77571975776996,141.5191504756012,139.37639966606926,140.61334228515625,212000
2024-08-14,140.37960449405662,141.04190311093822,139.75625849980418,140.15557861328125,115700
2024-08-15,141.2269391279022,143.50604616494218,141.2269391279022,143.18463134765625,277500
2024-08-16,142.30806341467064,143.01906387906809,141.8210739450238,142.90219116210938,250600
2024-08-19,142.51261052991734,143.88590958757007,142.12301002349056,143.14569091796875,191200
2024-08-20,143.15544136166255,144.45083532458932,143.15544136166255,144.25604248046875,387200
2024-08-21,144.31444064033664,145.67801991165624,143.62292399752621,145.4442596435547,267300
2024-08-22,145.6780688711514,146.48645848882754,144.80147871746917,145.1131591796875,200400
2024-08-23,145.7657034384913,146.6130604286141,145.5514268655365,146.52540588378906,221400
2024-08-26,146.75915922191393,148.6973829226023,146.23321706296485,146.25270080566406,235500
2024-08-27,146.10658758715397,147.59677430031587,145.94101293699603,147.265625,208300
2024-08-28,147.00265865265132,148.01560524076524,147.00265865265132,147.59678649902344,249000
2024-08-29,148.5805139173331,148.93114698600922,147.27538549682706,148.31753540039062,187100
2024-08-30,148.2395824635224,149.4473216241324,147.69415666896893,149.20382690429688,178500
2024-09-03,148.15194689459446,148.41492538696468,145.83387210929124,146.13580322265625,362400
2024-09-04,145.7072902273948,146.97345126291708,145.7072902273948,146.80787658691406,175800
2024-09-05,147.1487592794206,147.81105791158635,146.04815817755215,146.79812622070312,200600
2024-09-06,146.4669892113799,149.1356825686532,146.4669892113799,148.41494750976562,319100
2024-09-09,148.5999677014531,149.07720785028144,147.4993667902164,147.95713806152344,241500
2024-09-10,147.91819898327566,148.81425795867298,147.49939511007815,147.56756591796875,158100
2024-09-11,146.8663066160262,146.95397603273526,144.76252298810905,146.91500854492188,178000
2024-09-12,146.96369468322857,148.05454643692235,146.06763576244578,148.005859375,200400
2024-09-13,148.229880848657,149.02853597846607,147.94741858852652,148.31753540039062,138600
2024-09-16,149.0577660487323,149.1843880969392,148.11301992403,149.0090789794922,182900
2024-09-17,149.9927649627968,151.5219191158579,147.9181849513857,149.04800415039062,259900
2024-09-18,149.75900813476628,151.4440025327287,148.73634205746214,149.08697509765625,214200
2024-09-19,150.98625109226774,154.67762550954814,150.98625109226774,152.81732177734375,412400
2024-09-20,152.2426587848195,152.2426587848195,150.4602753884125,151.8530731201172,663300
2024-09-23,152.1063217320608,152.82707165167685,150.7135386843107,151.90179443359375,315800
2024-09-24,152.1160188905737,152.99260882581254,151.96992799890327,152.5543212890625,246200
2024-09-25,153.2069113857245,153.76207173006424,151.81411358113382,153.0510711669922,284100
2024-09-26,153.83025116800434,154.92110293146314,153.59649084937433,154.25880432128906,371600
2024-09-27,154.55097113044005,157.3463007953961,154.14190175887705,155.7294921875,354300
2024-09-30,155.14512315625234,156.2457242868971,154.7944900883672,156.02171325683594,289800
2024-10-01,156.36259442762125,156.36259442762125,154.9113751149142,155.80743408203125,192200
2024-10-02,155.70030382673775,155.9437986084722,153.84974943025287,154.6191864013672,186900
2024-10-03,153.8789526282023,156.2846820263738,152.564074990201,154.80422973632812,367000
2024-10-04,155.77820432469008,157.26839101232096,155.18407653760102,156.40155029296875,350500
2024-10-07,155.2425276346262,155.48602240881075,153.89843172537022,154.5607452392578,223300
2024-10-08,154.16137807405187,154.88212780546684,153.01209011335777,154.54122924804688,205900
2024-10-09,154.2295709430776,155.88533216711275,154.00554508664416,155.54443359375,152600
2024-10-10,153.93739633476548,155.23279029262568,153.93739633476548,155.0769500732422,168500
2024-10-11,156.75218568056042,157.70668095780067,156.17754162622376,157.3463134765625,194400
2024-10-14,160.6968029731812,163.394714143239,159.20661626974442,162.8395538330078,469700
2024-10-15,162.96617430440529,165.2452816100452,162.15776994657773,164.290771484375,397300
2024-10-16,164.31025487859057,164.79724438022347,161.6025944384509,161.71946716308594,330000
2024-10-17,162.63502251682706,163.94016577814568,162.18700046287847,163.52134704589844,238200
2024-10-18,164.6998366981898,164.6998366981898,163.41417742620754,164.2420654296875,171500
2024-10-21,164.08626790280834,164.10575164701467,161.97273493956166,162.001953125,217900
2024-10-22,161.40779833915946,162.04087873375656,160.52147389733162,161.49545288085938,228500
2024-10-23,162.1772317157538,163.60898197974547,161.8363479958803,163.28756713867188,318100
2024-10-24,164.38140383544402,164.39116447584829,162.26216763017436,162.65281677246094,547300
2024-10-25,164.96734120598276,165.87558734575057,160.75819577884172,164.95758056640625,518900
2024-10-28,165.92439581087592,167.3990718969887,164.81107199246878,165.14312744140625,350000
2024-10-29,165.07478239671167,165.52402518640017,163.71730828895062,164.75250244140625,338100
2024-10-30,164.41068693257148,166.2173887714383,164.18605810635694,165.07476806640625,290300
2024-10-31,165.1333689439496,166.29552588082868,163.9321545452615,163.98098754882812,329900
2024-11-01,164.16653293752452,166.98890749293048,163.69775401702358,165.4458770751953,316300
2024-11-04,165.66072177477935,166.5787284860389,164.24463934900223,164.32276916503906,191800
2024-11-05,163.81495853194275,166.37364684373878,163.81495853194275,166.32481384277344,206200
2024-11-06,171.05156441416634,171.05156441416634,168.1120023975292,169.10813903808594,264100
2024-11-07,170.12378096512896,171.35430696476374,169.47922114643825,170.62185668945312,412300
2024-11-08,170.61209897781401,173.6786238548333,170.40702122427004,171.6472930908203,309200
2024-11-11,172.1942029189047,173.8641813863164,171.7840176058394,172.02816772460938,189100
2024-11-12,172.51646680557812,173.09267240733516,170.85624898942092,171.5886993408203,179800
2024-11-13,171.3933563232422,172.26253001280048,170.95388915917127,171.3933563232422,168400
2024-11-14,171.05155682058597,171.67658049046,169.8405818424337,170.02613830566406,198200
2024-11-15,168.92257425336157,169.69408202115162,162.28168847937133,162.59420776367188,620500
2024-11-18,162.4965371683572,163.89308346527008,160.4847427631967,162.78952026367188,384400
2024-11-19,162.52583437609178,163.74658485803732,162.31098109913023,162.99459838867188,287600
2024-11-20,163.0922544076903,164.98686142400987,161.77383800717232,164.78176879882812,221800
2024-11-21,164.74273502870884,166.24669318990152,163.81496756616045,165.90489196777344,205100
2024-11-22,166.1978542572136,168.04364337816776,166.1978542572136,167.49673461914062,241600
2024-11-25,168.0241252682644,169.94802951711515,167.72138148625854,168.46359252929688,270100
2024-11-26,168.81514749207574,168.81514749207574,167.1549297751935,168.0143280029297,140300
2024-11-27,168.6296004490124,169.81129356804752,167.50651587532045,167.7115936279297,167200
2024-11-29,168.55144377295503,169.43039299219728,168.0631436183998,168.9127960205078,117300
2024-12-02,168.9323215272417,169.0592843391612,166.8423974094864,168.71746826171875,170900
2024-12-03,169.39133917889114,169.39133917889114,167.0865616010066,168.36590576171875,160100
2024-12-04,167.86783536473908,168.84443572520686,167.02795845866723,168.55145263671875,173400
2024-12-05,167.98505442378325,168.40500040714633,166.5396897893013,167.0963592529297,245000
2024-12-06,167.58463897320985,168.61005749857284,166.85218865409922,167.14515686035156,209200
2024-12-09,167.5455809247015,169.41089147314173,166.24670045963933,166.79359436035156,301700
2024-12-10,166.72522539571543,167.36000970992765,164.25442751782737,166.91078186035156,287000
2024-12-11,167.8580993317844,170.02615364197325,167.73113649775587,168.2780303955078,418600
2024-12-12,167.65296930179122,168.56121531663356,166.78379564336024,167.62367248535156,178300
2024-12-13,166.9107848371899,166.99867530040407,165.8462939336225,166.21739196777344,153200
2024-12-16,166.158796503823,166.9303042864774,163.66846242787886,163.70753479003906,236100
2024-12-17,162.9946031274387,163.0043786686916,159.02960783108298,159.2737579345703,511900
2024-12-18,159.8596998530706,160.57261387443967,154.21495151029833,154.5079345703125,468600
2024-12-19,154.80093483209816,157.78934478191135,154.5274878931726,155.1525115966797,404700
2024-12-20,155.00601023435632,156.0412042310304,153.7852597851201,154.4786376953125,730200
2024-12-23,153.49228296319632,155.1817974814259,153.28720522432621,154.81069946289062,194900
2024-12-24,155.06460748481138,155.6896311333145,154.2247305600973,155.62127685546875,100500
2024-12-26,154.7130496409685,155.89474280440862,154.7130496409685,155.13299560546875,164500
2024-12-27,154.1270910423129,155.84590247939389,153.92199838988887,154.44935607910156,145000
2024-12-30,153.32626257404377,153.80480213396478,151.3730617769222,153.0625762939453,221700
2024-12-31,153.59971586271843,154.54701948074276,152.52544941905987,153.42393493652344,317100
2025-01-02,153.96104492700826,154.4102876614351,149.8593262852289,150.55271911621094,239400
2025-01-03,150.43551553521377,152.07621191768425,149.29289488218893,151.86135864257812,250700
2025-01-06,150.39645072499704,151.0214743397327,147.89635626605445,149.3417205810547,369000
2025-01-07,152.2715539340709,152.40827741317517,149.02924790028047,149.83981323242188,361200
2025-01-08,149.3124422881475,150.6503801368408,148.5311589473614,150.54295349121094,228600
2025-01-10,149.14643028639964,150.68946087220502,149.00970681179618,149.85934448242188,350800
2025-01-13,149.3514738966303,151.08006056736804,149.3514738966303,150.2890167236328,349300
2025-01-14,151.18750459843608,151.81252825447513,149.8886242863141,150.9921875,196900
2025-01-15,152.4668309061716,153.24811411031993,150.56246334100467,151.91993713378906,206100
2025-01-16,152.24222469159,153.4922719205697,151.67579471256195,152.75006103515625,346300
2025-01-17,153.29697420180517,154.25403847264764,152.03715127326387,152.43756103515625,231900
2025-01-21,153.0528143054371,156.50997312910235,153.0528143054371,156.0900421142578,270900
2025-01-22,155.6114801759999,156.98849010418607,154.63487992651818,155.34780883789062,280000
2025-01-23,154.7521187567618,156.07052046490324,154.0391896764672,155.8849639892578,149800
2025-01-24,155.9142727810344,156.71509238966897,153.5411405831508,154.5958709716797,329600
2025-01-27,154.54701307242723,155.201333551255,152.98444647403235,154.75210571289062,317000
2025-01-28,153.88292658532947,156.59787440646915,153.88292658532947,154.71302795410156,204300
2025-01-29,155.0646061385479,155.10367849846844,152.95514575501196,153.43368530273438,265800
2025-01-30,154.1270810917156,154.96694312356598,152.9160912404324,154.42982482910156,274200
2025-01-31,154.205198107046,155.66033807623802,153.0918742405619,153.47274780273438,834100
2025-02-03,150.96288932286944,153.0821103704106,150.53318276913035,152.3301239013672,364600
2025-02-04,152.43754527468874,154.7520982407055,152.43754527468874,154.00987243652344,302400
2025-02-05,155.01866189479728,156.3702319730873,154.52896432375118,155.05784606933594,262600
2025-02-06,156.54649741836073,156.54649741836073,152.16860045521503,153.22634887695312,446600
2025-02-07,154.37224962460155,154.64647905482116,139.11327229734582,140.2297821044922,1221500
2025-02-10,141.28751591874922,141.6205215731766,137.9967481536114,140.3277130126953,621900
2025-02-11,139.33856189367694,140.12208105720353,137.36996794046337,139.35813903808594,377300
2025-02-12,138.06533442672804,140.53341437012955,137.04675510972507,138.78028869628906,423500
2025-02-13,139.80865498326042,140.8174307728779,138.54524183950096,139.8282470703125,665900
2025-02-14,140.72929960574803,142.31591505799216,139.7792850599418,141.80662536621094,512800
2025-02-18,141.80661410840983,144.2551019301506,140.93495304164546,143.87313842773438,489600
2025-02-19,143.12878909814165,144.45097836650277,142.60971092774975,144.01023864746094,331000
2025-02-20,143.94170202111488,144.3824268363581,142.91333415595835,143.6576690673828,283100
2025-02-21,144.0004768600077,144.3530597341893,142.20818182828341,143.32469177246094,451900
2025-02-24,143.1679734070286,144.25510260272546,141.38548203557013,142.60972595214844,353300
2025-02-25,142.87414821729212,145.27366299244076,142.71744142972454,144.66644287109375,336700
2025-02-26,143.62828832707837,146.10615678438293,143.59890766903789,143.61849975585938,735600
2025-02-27,143.21694635144803,144.14736874046284,142.3648773665291,142.6293182373047,262800
2025-02-28,143.14840249829248,143.92211811173567,141.64992907469428,143.7262420654297,348700
2025-03-03,143.94167865165974,145.7731424470105,142.6880542967998,143.5695037841797,394100
2025-03-04,142.54117057614394,144.90151659055175,142.14941847460233,142.9329376220703,490100
2025-03-05,143.04065503791688,145.78296426258473,143.04065503791688,145.38140869140625,445100
2025-03-06,144.5195432997619,148.37836251128888,144.02984573371802,148.0355682373047,471700
2025-03-07,147.40874233764586,150.20002418408012,146.10614513893535,149.63197326660156,480200
2025-03-10,148.93663737676746,150.8268629666157,147.1443423416951,147.46754455566406,391100
2025-03-11,147.24227347370973,147.4577416172004,144.2355379258109,144.84275817871094,304000
2025-03-12,145.18552675241813,145.18552675241813,142.56074026251753,143.02105712890625,299700
2025-03-13,143.39324790721705,144.16696350239528,140.79784178568258,141.77723693847656,238400
2025-03-14,142.23754924682325,143.86334873443155,141.5617642221919,143.63809204101562,223600
2025-03-17,143.49116498279625,144.9504690034165,142.85456417100727,144.79376220703125,225200
2025-03-18,144.35304428256728,144.49015899982857,142.7762175618708,143.28550720214844,219900
2025-03-19,143.32468002289772,144.42161273286254,142.4726110403041,143.9514923095703,279600
2025-03-20,143.11903629465112,144.38244962366562,140.76847866840228,142.20819091796875,332800
2025-03-21,141.03288741960213,142.46281077035695,139.4266801328764,141.83599853515625,601900
2025-03-24,142.74685366750688,145.12677688467917,141.9241652673277,144.94070434570312,463800
2025-03-25,145.43038233248038,146.15512513486658,142.9231183481365,144.1767578125,325200
2025-03-26,144.0200657855328,145.63606187248132,143.2855193924863,145.4989471435547,630400
2025-03-27,145.22472970521724,146.80155669057183,144.0004856154819,146.27268981933594,312700
2025-03-28,146.2138845778836,146.90926165859608,142.7566211490686,143.9025115966797,239800
2025-03-31,143.5597480313838,146.01802456611082,143.08964252694352,145.32266235351562,372500
2025-04-01,145.8123486528671,146.93864705079392,144.34325598893645,146.02781677246094,240000
2025-04-02,144.950476293581,148.0159877703709,144.950476293581,147.4283447265625,247600
2025-04-03,143.73601082079833,146.95822887417515,143.4422042640377,145.60665893554688,352900
2025-04-04,142.22775504246812,144.91130294785953,137.1544807452422,137.29159545898438,531600
2025-04-07,133.5307294902565,139.19163219073434,128.15385974857273,131.87554931640625,629900
2025-04-08,134.54932694082774,136.43955263814522,128.575009817582,130.90597534179688,473800
2025-04-09,130.43582718258966,141.44423305934052,128.6141667138947,140.7880401611328,491800
2025-04-10,137.11532993446937,140.4158870228316,134.7354067381973,137.8596649169922,309000
2025-04-11,137.967394489513,141.72828334567205,136.8606880961678,141.14064025878906,203000
2025-04-14,142.79581425798335,143.38344237476502,140.82722046414764,142.7860107421875,249300
2025-04-15,143.0896488919898,143.52057023933776,140.807656215774,140.97415161132812,250700
2025-04-16,141.09166473999363,142.81540979066028,139.63237551205373,142.01229858398438,307700
2025-04-17,142.40403652449308,142.7566193457953,137.81068622127157,140.86639404296875,390600
2025-04-21,140.347331860725,141.08187824351555,138.19266546008294,139.6421661376953,291600
2025-04-22,141.52259151328374,143.79479531157602,140.631338388382,143.0112762451172,217800
2025-04-23,144.823151790697,146.24328667195422,144.1865509396658,144.99945068359375,537000
2025-04-24,144.88190918887037,148.86805439769142,142.4628170537404,148.3391876220703,424500
2025-04-25,147.74177325388501,149.8474669754594,144.52935816394884,145.9886474609375,220500
2025-04-28,146.71340875780027,147.9180607088582,145.2247238205769,146.61546325683594,235200
2025-04-29,146.67419752698908,148.84845573678555,145.93965123839249,147.2030792236328,359900
2025-04-30,145.9984330116698,146.89947469973708,144.17675754933848,146.86029052734375,556200
2025-05-01,145.82883124627438,147.8721067076984,144.36514960993844,145.66183471679688,445300
2025-05-02,150.2886872456017,150.29850528114721,145.18049076089244,149.316162109375,431600
2025-05-05,148.75619296258844,150.51459532270206,148.21591630528783,148.80531311035156,267600
2025-05-06,147.59705042912566,149.355437978684,146.78170385931236,148.25521850585938,312000
2025-05-07,149.1982877610097,150.44585281383766,147.96052575449374,148.71693420410156,318400
2025-05-08,149.1098443499113,151.84077180787722,148.5695676661293,150.65213012695312,302500
2025-05-09,151.1924328459138,151.5755460622504,150.23955882257493,150.61285400390625,231600
2025-05-12,153.0392239180569,153.82510139061208,150.98613045039815,152.7740020751953,352500
2025-05-13,153.55005471787953,153.55005471787953,150.49496693494288,150.9272003173828,339400
2025-05-14,150.90755987438112,150.90755987438112,148.30435635067707,149.78768920898438,350100
2025-05-15,149.65996739529265,152.7346909024297,149.65996739529265,152.21405029296875,278100
2025-05-16,152.4399964689241,154.3752135929202,151.86041763202704,154.23768615722656,278600
2025-05-19,153.59915663256362,155.5441916331963,153.5500364832347,155.28878784179688,185400
2025-05-20,157.4303150085624,157.4303150085624,155.12181749431372,155.73086547851562,388100
2025-05-21,154.09034056579173,154.8663850260189,153.07852836340334,153.6875762939453,319800
2025-05-22,153.5991755437167,154.4832783830283,152.81329802579143,153.88404846191406,278900
2025-05-23,152.3810559407016,153.4223372220158,151.53624028030902,153.18658447265625,260500
2025-05-27,154.25734853178614,155.64245601461047,153.92335544765425,155.36740112304688,352800
2025-05-28,155.36737887816963,156.03536495079385,154.48326114812755,154.62078857421875,364400
2025-05-29,155.04323694434188,155.86840167688345,154.05107565802658,155.53440856933594,232100
2025-05-30,155.44598590152702,155.97644460873903,153.77599055020596,155.6031494140625,335100
2025-06-02,154.75833131600515,156.2613301068848,152.51859016122646,154.13946533203125,349600
2025-06-03,153.4223415376803,154.66010346409962,153.24552697068694,153.5009307861328,397800
2025-06-04,153.72687442684654,153.7563435201819,147.63633532186296,147.7542266845703,831900
2025-06-05,148.90357998413,150.632498572694,146.41825295522108,149.79751586914062,482400
2025-06-06,151.64429332994897,151.75235166609104,149.52244371290558,150.60301208496094,264700
2025-06-09,150.01363456854594,150.4753220758684,148.68746527135272,148.92323303222656,388400
2025-06-10,149.47332984142486,150.2984944487939,148.19628081228734,149.8367919921875,323500
2025-06-11,150.29849644880608,150.8780752886444,148.92322208489034,149.23756408691406,380800
2025-06-12,148.73658814675593,151.8899014382214,148.73658814675593,151.6246795654297,337200
2025-06-13,150.2985051515068,151.00579343372206,148.06858195648448,148.49099731445312,361200
2025-06-16,148.5695758002576,150.20025395390124,148.4516844355203,149.01162719726562,346200
2025-06-17,147.9998142251002,148.58921108822153,146.49683048956007,146.81117248535156,379700
2025-06-18,146.48700188455078,148.06857491409224,146.48700188455078,147.0567626953125,383200
2025-06-20,147.6363309167007,148.10786637472864,146.35929693863002,147.6461639404297,570500
2025-06-23,146.85047583401547,151.2218996436103,146.85047583401547,151.0745391845703,356500
2025-06-24,151.84077408220156,151.84077408220156,150.47530283808342,151.1531219482422,246600
2025-06-25,151.14329517579995,151.80146318967252,150.0725448990236,151.21205139160156,264700
2025-06-26,151.80148526751537,152.83294856947208,150.4163778331554,151.7523651123047,658200
2025-06-27,151.92918872409527,153.3535832332286,151.50677339306424,153.06871032714844,643100
2025-06-30,153.27500695161754,153.73670945071478,151.88008141858438,153.66793823242188,315500
2025-07-01,153.66793021902077,156.9784367941011,153.20624273336693,156.20237731933594,338300
2025-07-02,156.21219361043833,157.69552619700025,155.8487164947486,157.48924255371094,293500
2025-07-03,157.76431481113727,158.51089020387988,156.99808835850575,158.196533203125,235100
2025-07-07,158.10811741535406,159.5030428051159,157.7151861749073,158.11795043945312,313900
2025-07-08,158.05901225349746,159.7093565965001,157.02756390215916,157.22402954101562,342700
2025-07-09,157.10613360189868,157.18472285303153,155.30845881868973,156.90966796875,252800
2025-07-10,156.37922436390042,157.52856416766224,155.53440856933594,155.53440856933594,361600
2025-07-11,155.76030371292907,155.76030371292907,153.864388917444,155.11195373535156,292000
2025-07-14,154.36538707594116,156.13360757296107,153.92333569902758,154.77796936035156,276600
2025-07-15,154.95480896302266,155.21021277775083,151.34961151557988,151.43801879882812,254200
2025-07-16,151.2022489800424,152.8624112264187,150.83878682765217,152.2435302734375,261900
2025-07-17,152.00777788286257,153.6482890740105,151.78182817574609,153.27499389648438,397700
2025-07-18,154.08052265083427,154.43416676966828,152.18459265589,153.6188201904297,243100
2025-07-21,153.6580893576471,153.90367510620285,152.49893181935886,152.70521545410156,205900
2025-07-22,153.35357548550758,156.54619042612177,152.48910879729814,156.3595428466797,449900
2025-07-23,157.24368095923748,158.99225063096037,156.33009400189493,158.80560302734375,450500
2025-07-24,158.559320268112,161.82979531304568,157.40675735764995,159.406494140625,431900
2025-07-25,159.63305506440543,160.65753702914088,158.3819926877325,158.5888671875,296300
2025-07-28,158.79573614749467,159.56410142477418,155.80108366056007,156.33302307128906,308500
2025-07-29,156.67782885083633,157.2196288027842,154.8751208459242,156.45126342773438,388200
2025-07-30,156.4315385130725,156.55958937255576,152.60940298667225,154.45150756835938,580700
2025-07-31,153.456563501654,155.0031544025075,152.86550639902828,154.79627990722656,679700
2025-08-01,154.6288158726098,155.76165777291718,138.9856590147076,139.24179077148438,1012300
2025-08-04,140.98538123418317,140.98538123418317,135.03547356824112,137.05490112304688,839000
2025-08-05,137.2617519084508,138.9659599251385,135.63636753338238,138.12863159179688,540800
2025-08-06,138.21729882019278,138.6605841437307,135.49846914211423,136.47369384765625,515300
2025-08-07,137.71492680516198,139.37972335336121,136.8382014966747,138.39463806152344,564000
2025-08-08,138.59163887027924,139.93135534040795,138.48327889728324,138.65074157714844,428700
2025-08-11,139.222090228796,139.5077583171329,137.12385398637957,137.7838592529297,349500
2025-08-12,138.12864188918144,138.9856611656125,137.15340217271373,137.39967346191406,286100
2025-08-13,137.60654859738395,139.33044762978915,137.17310872138614,139.32058715820312,729900
2025-08-14,138.09910131689176,138.09910131689176,134.40503169053025,136.2766876220703,875800
2025-08-15,136.29638497225332,136.8775816161289,135.81368782683418,136.65101623535156,770500
2025-08-18,136.81847442171076,137.4883401327873,135.3014499206359,135.83338928222656,529500
2025-08-19,136.20773671589527,138.4241784468644,136.20773671589527,137.50804138183594,333100
2025-08-20,137.8232781418471,139.14328874260568,137.18296372359896,139.07432556152344,519200
2025-08-21,138.53252821704885,139.78357552390523,138.1483456132288,138.54237365722656,270400
2025-08-22,139.15312448451428,141.19225798353852,139.08417633944555,139.32058715820312,356500
2025-08-25,138.86747422955796,139.4979282125284,136.88745821223102,137.47850036621094,245800
2025-08-26,136.9957973337368,138.06953652648775,135.95159446141804,137.62625122070312,442900
2025-08-27,137.01548945470773,138.47342629437426,136.95638675089546,137.3602752685547,729100
2025-08-28,138.07938928608468,138.07938928608468,135.35069910089788,136.8184814453125,320800
2025-08-29,137.09431078109077,137.78386744151146,136.28654870208595,137.1928253173828,370700
2025-09-02,135.37040364310914,136.46384879424832,134.13904716800675,134.37547302246094,310600
2025-09-03,134.0503903916783,134.1488898889654,132.43485133034417,133.20321655273438,382300
2025-09-04,134.3163671782823,136.41458834161003,133.0258929963137,136.3948974609375,401800
2025-09-05,136.94653328871905,138.71968945525342,135.5772656161853,136.552490234375,440800
2025-09-08,136.52295752982062,137.91193130257207,135.62652636886406,136.23728942871094,616100
2025-09-09,136.1978803964661,137.39968559639797,133.08502244977814,135.0059356689453,637100
2025-09-10,134.09965957050477,135.40982475360394,132.83875165602893,134.21786499023438,685100
2025-09-11,134.71040519706986,136.2175843964125,133.84352538471833,135.05519104003906,477500
2025-09-12,134.58234162242087,135.00593609481896,133.20322828923454,133.21307373046875,261300
2025-09-15,133.94202034472283,134.13903435567997,132.62200993698394,132.83872985839844,298000
2025-09-16,132.77962562814162,133.40023410540573,132.0999294759084,133.19337463378906,474800
2025-09-17,133.4002281421939,135.02562764541634,132.18857762612365,132.64170837402344,377400
2025-09-18,132.88800088562363,133.48890351954688,132.0703933145297,132.4939727783203,254800
2025-09-19,132.65156489801703,133.08500475264486,131.35124533413355,132.43484497070312,877200
2025-09-22,132.11960688188879,132.92738386712793,130.69123651388878,130.74049377441406,402100
2025-09-23,131.0261738005905,131.95215627068484,130.00169183165633,130.0509490966797,319700
2025-09-24,130.0312388605038,131.32169799268698,129.38107905871175,129.5386962890625,353300
2025-09-25,129.53870141670419,130.54349251095573,128.32705085173455,128.8688507080078,388700
2025-09-26,129.37123644965243,130.4548211118124,129.00675974879576,130.31690979003906,274400
2025-09-29,130.42527680922657,130.7010994676822,129.4007947965638,130.29722595214844,540600
2025-09-30,129.74557555443596,131.76498814664785,129.74557555443596,131.66648864746094,310400
2025-10-01,131.34141139667054,132.35604794922318,130.33662028487404,132.1393280029297,310100
2025-10-02,131.66648573117217,132.38559368725765,130.97692912730892,131.19363403320312,398500
2025-10-03,130.49423360821496,131.58767874762543,130.45482178395852,131.23304748535156,402000
2025-10-06,130.90797079558112,131.21334480064905,129.45004891757588,129.9130401611328,447100
2025-10-07,130.13960666531722,130.5336347337186,127.8739076939909,128.64227294921875,438800
2025-10-08,129.2234697553329,130.04109227782575,128.31719317203184,129.64706420898438,361300
2025-10-09,129.73572663806536,130.8587232410274,128.2580987377885,128.6619873046875,554200
2025-10-10,128.98704858156654,130.04108184834632,127.95270619480443,128.97718811035156,426000
2025-10-13,129.03630601031335,130.37602238234368,128.2186835523413,128.2777862548828,311400
2025-10-14,128.10048555861533,129.10527677147402,127.11540026045824,127.86407470703125,337400
2025-10-15,127.86406447402499,128.44526114593418,125.95299674355027,126.18942260742188,438300
2025-10-16,126.52433431790585,127.56852213268624,125.94313019312601,127.23359680175781,352700
2025-10-17,127.23361106421747,128.15959357922404,126.92823704995098,127.41091918945312,339700
2025-10-20,127.67688307805489,128.1497197271898,126.11060134384137,128.06106567382812,240500
2025-10-21,128.6619859078428,129.80468841247423,127.19420346493476,128.62258911132812,311600
2025-10-22,128.70137488096933,130.13960588126338,128.04136960320932,128.12017822265625,357500
2025-10-23,128.2783732274755,130.04820070636612,128.1992726855578,129.29676818847656,378600
2025-10-24,129.27699821696652,129.41542040316887,127.09188897025071,127.42807006835938,489300
2025-10-27,127.68513804202082,128.43657062662018,127.00290900843953,127.32919311523438,521700
2025-10-28,127.29953156353623,127.65547648827675,126.03395296154486,126.6568603515625,413500
2025-10-29,125.84608767724626,126.06361040803851,122.02957306455488,122.9095458984375,651100
2025-10-30,122.6425973459498,124.10591981246533,121.65386309537952,122.95899200439453,702600
2025-10-31,113.99116650647636,116.76950718685458,102.0670345015107,114.70305633544922,2758200
2025-11-03,114.78215353846566,114.78215353846566,107.07003104374891,111.84561920166016,1661000
2025-11-04,113.0716415827989,114.69316503673943,111.26225622049985,112.89366912841797,1029100
2025-11-05,113.04198468525121,114.73271928879292,111.49955417930168,114.26801300048828,896900
2025-11-06,113.72420954512762,115.64235639440284,112.51796010267421,114.84148406982422,880300
2025-11-07,114.9205721317626,115.60279355716192,113.39792065465342,114.91068267822266,697200
2025-11-10,114.68328006091402,115.45449154553131,112.71570107535919,115.06888580322266,514000
2025-11-11,115.64235215314066,118.16362740289492,115.64235215314066,116.93759155273438,484800
2025-11-12,117.00680708571316,118.32182544371216,116.58165860151216,116.82884216308594,547500
2025-11-13,116.96725913412712,120.50692184487997,116.96725913412712,118.8458480834961,679400
2025-11-14,118.42069332802943,119.33033453666947,117.05624283023447,117.27376556396484,521200
2025-11-17,117.15511423578639,118.1438484441411,116.24548057452645,117.99553680419922,820200
2025-11-18,118.31193671929118,118.75686408712447,116.72995598156568,117.96587371826172,817400
2025-11-19,118.16362210922091,118.16362210922091,116.38389759577892,116.6706314086914,598900
2025-11-20,116.67063483535937,118.26249749040201,116.04773500908134,117.24410247802734,507400
2025-11-21,116.79916971414367,120.86286792776397,116.79916971414367,120.1509780883789,509100
2025-11-24,119.48852930748254,121.02107037008182,119.08315219875638,120.10154724121094,740000
2025-11-25,121.0309595133857,122.68214385066395,121.0309595133857,122.04935455322266,543600
2025-11-26,121.63407548431789,123.11717675407199,121.63407548431789,122.41517639160156,538000
2025-11-28,122.23721179455744,124.65961521692697,122.23721179455744,123.34459686279297,315700
2025-12-01,123.47312464549341,123.55222519221778,121.64396787729149,121.89115142822266,536800
2025-12-02,122.37563109798752,122.46462110038372,119.4390968008952,120.2300796508789,325400
2025-12-03,120.08176988930819,122.86011822072538,120.04222715811682,120.68489837646484,543100
2025-12-04,120.82332005860296,122.6821452414219,120.55636513524256,120.64534759521484,708000
2025-12-05,120.61568357957054,122.11856379579517,119.26112254625717,120.53659057617188,537000
2025-12-08,119.55773823925648,120.72444490270962,117.95599365521366,118.71731567382812,496600
2025-12-09,118.25260671307173,118.49979025868578,114.06037589162156,114.41632080078125,640300
2025-12-10,114.86125658975384,116.47289825316335,113.83297205936897,115.84999084472656,734700
2025-12-11,116.6310870053096,117.33308739219939,115.84010415999195,116.68052673339844,389700
2025-12-12,117.18477675810965,120.26963024864754,116.32458281214376,120.10154724121094,656400
2025-12-15,120.11144352151473,121.08039889052128,119.12270924260135,120.95186614990234,588600
2025-12-16,121.28802692871906,122.45473362902362,118.17351257639858,121.44622802734375,644800
2025-12-17,120.73433285185864,123.19627887906455,118.72720364799784,122.2372055053711,567300
2025-12-18,122.2767604710972,122.72169540087228,120.65523693661119,121.23859405517578,457100
2025-12-19,121.95048213130443,122.92933449703057,119.89392056770684,120.02245330810547,1300400
2025-12-22,120.02244905131522,122.30642273678362,119.70605439556444,121.35723876953125,527800
2025-12-23,121.48577032424926,121.6439638690421,119.95322934159698,120.81343078613281,311700
2025-12-24,121.14961134349309,121.78240068560056,120.3882892593289,121.36713409423828,198000
2025-12-26,120.99141254975284,122.08890816765887,120.34873378036154,121.86149597167969,306000
2025-12-29,121.90103810595791,122.90954365167185,120.9419647432383,121.82193756103516,400200
2025-12-30,121.41656795360201,122.89966931682952,121.04084411378047,121.35723876953125,289800
2025-12-31,120.15097596397585,121.94058998507745,119.98289296138277,120.58602142333984,314300
2026-01-02,120.36850209754444,121.61430932967109,119.4193181494529,121.15949249267578,295100
2026-01-05,120.38828287586783,123.17651312401219,120.38828287586783,121.61431121826172,435700
2026-01-06,120.8430922091253,121.46599202442482,118.7568624940921,119.20178985595703,777200
2026-01-07,119.31055741898699,120.57613602320409,116.28503309681528,119.0831527709961,478500
2026-01-08,118.56900865138992,121.98014631699301,118.17351344536358,121.06062316894531,330000
2026-01-09,120.70467850674399,123.5621198728979,120.09166055886544,122.4547348022461,429100
2026-01-12,122.60303947816963,123.88839694168902,121.59453392415777,123.72030639648438,477300
2026-01-13,123.64121411549613,124.02681984811237,121.15948917361368,122.10867309570312,351900
2026-01-14,122.71179941985773,125.7274416797615,122.71179941985773,125.42092895507812,611700
2026-01-15,125.70766789113175,125.78676843900955,123.11718152395939,123.7005386352539,381000
2026-01-16,122.60304567683241,123.78952374665012,121.85160554277793,123.30504608154297,363400
2026-01-20,123.49289879622381,124.11579860493296,122.0493478196131,122.42506408691406,275100
2026-01-21,122.90955081825824,124.20479780070094,122.50417370291805,123.60166931152344,421000
2026-01-22,123.64120901396967,124.98588806730808,122.66235676992284,123.06774139404297,369700
2026-01-23,122.93921055756546,124.85735737798285,122.4745118058816,124.58051300048828,429500
2026-01-26,124.99577817123766,125.55935637440064,123.69064930373163,124.92656707763672,315400
2026-01-27,123.54234245634069,124.87713973871088,122.77113094244734,123.33470916748047,303100
2026-01-28,122.80078648003611,123.6609879626866,121.8614919932062,122.3064193725586,347800
2026-01-29,122.88978028418853,123.86862507511535,121.20892754069328,122.4547348022461,386000
2026-01-30,121.52533188143772,123.60167232496788,121.27814831569736,123.54234313964844,512700
2026-02-02,122.80078342815366,124.49152553193812,122.80078342815366,123.42369079589844,489100
2026-02-03,122.51405462375108,126.48876266797768,122.29653189940339,123.22593688964844,658700
2026-02-04,124.77433039015442,129.44927260782487,123.77184577350829,128.26812744140625,589400
2026-02-05,126.71975064755804,128.1192596554473,121.05225107397254,123.05722045898438,2144200
2026-02-06,126.58078326238557,134.97782150042084,126.58078326238557,133.31031799316406,1045700
2026-02-09,132.5857587104382,138.531180271334,132.2582131007177,137.43936157226562,1043400
2026-02-10,136.78427392403074,139.88104683101494,136.78427392403074,139.126708984375,622100
2026-02-11,137.99519392074043,139.50388475135443,137.56840169460276,138.9678955078125,584300
2026-02-12,139.11678651599092,140.94308767923593,138.3525134196047,139.46417236328125,572700
2026-02-13,139.46416820425452,141.86615414747763,139.36492159879577,141.51876831054688,471900
2026-02-17,138.2234773285034,142.55102629654255,138.2234773285034,140.59568786621094,614700
2026-02-18,140.41703714664675,142.04482998774162,139.791721402891,140.66517639160156,582000
2026-02-19,140.5956812663536,142.25326464590432,139.98030082414553,142.09445190429688,525500
2026-02-20,142.0547550361601,144.0597244456509,140.94309602664507,143.97039794921875,664500
2026-02-23,142.42199361111417,145.15152505885825,142.06467252487357,144.63539123535156,513500
2026-02-24,144.98279666295065,145.8165408414096,142.77931908758302,143.06715393066406,429800
2026-02-25,141.3500320156877,142.5907281428982,139.3847584456305,141.61801147460938,348900
2026-02-26,142.45178416412276,142.8488009040386,139.9505362960431,140.73464965820312,331300
2026-02-27,140.47658357934912,142.9381205686862,139.9505296087492,142.64036560058594,344600
2026-03-02,141.93563886113196,142.2830398395081,140.56590547180699,141.60809326171875,335000
2026-03-03,139.5931967078321,140.26814325067423,135.90088396317486,138.71974182128906,347300
2026-03-04,138.302888395737,138.47162126788456,134.9976717766612,136.02000427246094,389000
2026-03-05,134.98775502807862,135.32522078079646,133.40959299752922,133.72720336914062,452300
2026-03-06,133.0026313554941,133.0026313554941,130.02496050425168,131.096923828125,398500
2026-03-09,129.9951790988654,132.98276993154295,126.58078092139597,132.75448608398438,545700
2026-03-10,132.3574660154593,133.1316591702968,130.42196798314936,131.14654541015625,503100
2026-03-11,130.8190202738326,132.28800044532838,129.0721101988683,131.03738403320312,563800
2026-03-12,130.29295237048808,131.8016279987067,127.68252279954663,127.90088653564453,620600
2026-03-13,129.1812869710477,129.1812869710477,126.10436937058473,127.69245147705078,660600
2026-03-16,128.51628506786432,130.4319280867629,125.06219070801843,128.08949279785156,370700
2026-03-17,129.00263581888095,130.04482370856644,127.28551643200822,128.5361328125,276700
2026-03-18,123.45423058912087,125.63786042046195,120.51626292882625,123.29542541503906,910500
2026-03-19,122.0944332187195,123.8909588849741,120.54603921873606,123.04728698730469,518500
2026-03-20,123.33512999241371,123.33512999241371,119.41452545613383,120.15894317626953,1481500
2026-03-23,122.59071811756196,125.39964869362488,122.0745842329971,123.21602630615234,455200
2026-03-24,122.2433152775169,124.28798013248851,121.95547285876513,123.22594451904297,405000
2026-03-25,124.50634549167631,125.62793211237509,122.78921864642815,124.88351440429688,337200
2026-03-26,124.28798636131239,126.3922023143744,123.19617519683187,123.76193237304688,442100
2026-03-27,123.01751427118627,123.28550132328671,120.85373975633635,121.08202362060547,381400
2026-03-30,121.64777727824665,123.01751071469691,120.19864504103799,122.44182586669922,562000
2026-03-31,123.46415851677581,126.01502957768723,122.67010992701152,125.08202362060547,557800
2026-04-01,126.39219982096562,127.68252689973865,125.38972274230011,125.80659484863281,380200
2026-04-02,124.2085781211438,126.14406117582702,123.32520302720033,125.07210540771484,297500
2026-04-06,123.66266876079281,125.25076596450165,123.66266876079281,125.07210540771484,461100
2026-04-07,124.38723692091199,126.22346576757812,123.8711106378232,124.67507934570312,376900
2026-04-08,130.4021481364575,131.68254004802253,127.19617800807119,131.03738403320312,645200
2026-04-09,130.24332882387228,131.45424955756675,126.39220287440348,130.42198181152344,424100
2026-04-10,131.2656579543429,131.71230555728022,129.87608426848973,130.521240234375,407400
2026-04-13,129.82646170678544,131.43439923843442,126.63042687940094,131.126708984375,396300
2026-04-14,130.2532453341348,131.73216065356567,129.99518597737963,130.03488159179688,315500
2026-04-15,129.83636721114993,130.0547309433663,127.64282491736233,128.68499755859375,407100
2026-04-16,125.9554827551545,129.3599535123959,125.9554827551545,127.33512878417969,393800
2026-04-17,128.68501330537714,131.31529853067389,128.68501330537714,129.65773010253906,401100
2026-04-20,129.59817078840075,131.00759986778516,128.69494031122633,129.945556640625,403600
2026-04-21,129.727195499975,131.2656618627598,125.7470474243164,125.7470474243164,310200
2026-04-22,126.33264680138942,126.33264680138942,122.04480110008107,123.62297058105469,458900
2026-04-23,124.44679072012924,126.49146323670142,123.51379231359721,124.01007080078125,440800
2026-04-24,123.48400922187079,123.48400922187079,121.6577005635927,123.15646362304688,440900
2026-04-27,123.11676141393268,125.2904634945878,122.6204829533344,123.80162811279297,359700
2026-04-28,125.18128618602746,125.70734016180099,122.79914797388655,124.8338851928711,354300
2026-04-29,124.20857785922294,124.96292327213307,121.87607050853111,121.9852523803711,448400
2026-04-30,122.51130595027864,125.14158341040145,120.97283963229869,122.75944519042969,764800
2026-05-01,126.26316859263083,127.5237125861033,117.0224658192811,118.13412475585938,989400
2026-05-04,117.79666211505766,120.84381172589876,116.58574139374336,119.7023696899414,739600
2026-05-05,120.00014032911528,122.78922301811379,119.92073395333378,121.1217269897461,628600
2026-05-06,122.74597925597982,125.94466800462597,121.24129756714204,122.19791412353516,917000
2026-05-07,122.5068295340525,126.02439054042098,122.13813047351475,124.66918182373047,749700
2026-05-08,124.78875603965518,125.4165335007669,119.9658058031768,120.56369018554688,794900
2026-05-11,120.79288554794945,120.79288554794945,119.0191585502766,119.53732299804688,706100
2026-05-12,120.02559365453983,120.43415267647454,116.72725880994862,117.6340560913086,696600
2026-05-13,117.58423293808002,118.33159035082205,116.01976505817387,117.46465301513672,679500
2026-05-14,118.31166263789773,119.73662439056804,116.62761485678391,117.57426452636719,531000
2026-05-15,117.49455009110837,117.5045093824967,114.06666843041747,114.26596069335938,447000
2026-05-18,115.19268785792543,116.90662874327987,114.76420263658683,115.40194702148438,433100
2026-05-19,115.48166685737739,115.63113986049136,112.05378509001822,113.20970153808594,575800
2026-05-20,113.66807993613209,115.04321484042606,111.15696237122292,114.85388946533203,562600
2026-05-21,116.08951407739181,116.08951407739181,112.37265332877841,115.1030044555664,345600
2026-05-22,115.39198749681162,116.38846404651633,114.30582410432685,115.82047271728516,405800
2026-05-26,115.79056648170686,116.55785764558959,114.96349676302546,115.96993255615234,344500
2026-05-27,116.52796630163347,117.69384200162881,114.32575411191587,114.89374542236328,464000
2026-05-28,114.40547144179769,115.93007936247552,112.95061657623215,115.58131408691406,510100
2026-05-29,114.65458561775299,116.84683851674723,113.34920381323532,115.44180297851562,559600
2026-06-01,114.28589767180515,114.72434218302038,111.63526640610465,111.9840316772461,706800
2026-06-02,111.5555436879482,112.65167394505289,110.84804626905223,111.78473663330078,452400
2026-06-03,111.29646253608045,113.61824699938008,111.29646253608045,112.13349914550781,372600
2026-06-04,114.54497230632394,115.35212345281656,111.14699134502068,112.15343475341797,337600
2026-06-05,112.69152600064275,114.18624078068318,111.58544405772433,112.96057891845703,466300
2026-06-08,111.86445781905672,112.24311616501637,110.55906839000053,111.54558563232422,422200
2026-06-09,112.88085932662787,115.74074968498803,112.27300803930216,115.49163055419922,444400
2026-06-10,115.74074928767203,116.13934141606836,112.97054577921195,114.26596069335938,496800
2026-06-11,114.70441351982215,116.59772043978674,113.85740999319688,116.16923522949219,395200
2026-06-12,117.48458764205596,118.05257897569324,115.96993901734801,117.30522155761719,342600
2026-06-15,118.28175862932584,120.31457162088154,117.14577601676713,117.66394805908203,576100
2026-06-16,118.08246565966249,120.62348378448296,113.36912845320511,120.22489166259766,474700
2026-06-17,121.19147655168894,121.918900150595,119.03908362900873,119.56721496582031,680500
2026-06-18,120.03556323646836,122.1182031608104,118.69032142639777,119.89605712890625,750600
2026-06-22,119.13873446752551,120.58363003359555,118.46113010611298,119.57718658447266,468400
2026-06-23,119.93591657137902,122.14809569936509,118.6604278207416,120.1850357055664,514100
2026-06-24,121.55021059109053,124.60939323702425,121.34094382937874,123.84210205078125,404900
2026-06-25,125.28699706013307,127.68850153642342,124.45991971828299,125.98452758789062,363500
2026-06-26,125.49625757990486,126.67210019838983,124.3204149614199,125.53611755371094,727400
2026-06-29,125.16742108368359,125.60587320209562,123.48337326752176,124.84854888916016,446600
2026-06-30,124.16097333332938,125.86494727656601,123.5033027809896,124.75885772705078,329300
2026-07-01,124.67914609082169,126.39307933521575,123.66273577346423,124.80868530273438,405600
2026-07-02,125.82508774888942,127.77818082996899,124.96812492977865,126.5325927734375,468400
2026-07-06,125.98452783897301,126.6023460237271,123.74245564919634,125.56600952148438,431400
2026-07-07,126.18381913439254,128.26645901687073,125.71548155556971,127.2400894165039,392700
2026-07-08,126.00445175211411,126.26353777363065,122.60647080352626,123.77234649658203,537700
2026-07-09,124.02146439127118,125.03787467960888,123.34386006655016,124.0114974975586,302100
2026-07-10,124.55956853594634,126.53259544666133,123.93179104742975,125.08769989013672,385200
2026-07-13,125.64571994715708,126.72191640641843,123.96167980892794,124.449951171875,391600
2026-07-14,127.96751666781715,128.95403392567474,127.5091383673285,127.82801055908203,739900
2026-07-15,129.25298235497795,130.3092450844948,127.99741214779503,128.65509033203125,466800
2026-07-16,129.56187796196684,134.6040465870392,129.56187796196684,134.27520751953125,579300
2026-07-17,135.351401437915,136.16850424088722,130.24944675099272,132.1427459716797,530800
2026-07-20,131.9135687694055,131.9135687694055,129.2928306127641,129.4522705078125,422900
2026-07-21,130.07008242817932,130.59821378154385,127.46927803301472,128.45579528808594,328800
2026-07-22,129.35261865201468,130.02025611657908,128.02730301458666,128.71487426757812,309900
2026-07-23,128.39600579528673,129.36258923692642,127.71839385448645,128.54547119140625,382800
2026-07-24,129.13338680160044,132.26232242316664,129.13338680160044,131.8936309814453,335900
2026-07-27,132.72071171310446,133.60757521827134,132.19258036761323,132.9000701904297,411200
2026-07-28,134.9030016293852,137.54365843276426,134.3549364800917,137.32443237304688,593100
2026-07-29,135.52081464440568,136.11870667337666,134.0759266469227,135.75,580000
2026-07-30,136.39999389648438,136.39999389648438,133.11000061035156,133.8699951171875,627000
2026-07-31,137.4600067138672,139.57000732421875,132.1699981689453,133.9600067138672,886500
2026-08-03,137.22999572753906,138.4600067138672,134.52999877929688,136.77000427246094,642500
2026-08-04,137.8699951171875,137.8699951171875,135.33999633789062,136.17999267578125,511900
2026-08-05,136.8699951171875,136.8800048828125,134.8699951171875,136.75,454800
2026-08-06,138.6199951171875,138.69000244140625,134.6699981689453,135.77999877929688,545000
2026-08-07,135.05999755859375,137.67999267578125,134.7100067138672,135.4199981689453,686300
2026-08-10,134.38999938964844,134.52000427246094,132.92999267578125,133.67999267578125,446700
2026-08-11,132.8000030517578,135.0500030517578,132.8000030517578,134.75,343700
2026-08-12,133.50999450683594,134.47000122070312,132.27000427246094,133.14999389648438,315100
2026-08-13,134.44000244140625,134.44000244140625,132.08999633789062,132.57000732421875,490800
2026-08-14,132.08999633789062,132.7449951171875,129.55999755859375,132.10000610351562,216620
