Date,Open,High,Low,Close,Volume
2023-08-01,116.61935765181299,117.83133919549644,116.1480343498465,117.77362823486328,365300
2023-08-02,116.81173904362059,117.66781920141501,115.40738274725415,117.58124542236328,329200
2023-08-03,116.88867413040164,118.05256554234968,116.11916782021717,116.20573425292969,195900
2023-08-04,116.02298652948932,117.47543279326784,115.8883227346837,116.04222106933594,116500
2023-08-07,116.12878717811819,117.02334366376697,115.91717056064468,116.66744232177734,140300
2023-08-08,115.50355672771177,116.77324907703569,115.14765539045683,116.50392150878906,270100
2023-08-09,116.50392686973844,118.68741033160472,115.92678795279474,117.1868667602539,287500
2023-08-10,117.1580124418893,118.86055171557352,117.1580124418893,117.57162475585938,216000
2023-08-11,116.87905804838567,118.52388628263004,116.87905804838567,117.9371337890625,226500
2023-08-14,117.37923848241954,118.30265045166016,116.94639164449069,118.30265045166016,145700
2023-08-15,117.95637129779684,118.24494075189612,117.33114971162514,117.43695068359375,249000
2023-08-16,117.09067434641418,118.46617500714814,116.85981585412429,116.90791320800781,291100
2023-08-17,117.31191625877085,117.98524258714839,116.98487770335657,117.00411224365234,186600
2023-08-18,116.75401425810986,118.71626752361922,116.75401425810986,118.59122467041016,443100
2023-08-21,118.45656631277183,119.71663785760668,118.36999253455805,119.06255340576172,358800
2023-08-22,119.14913369014795,120.91900504553355,118.08143684517816,118.26419067382812,429600
2023-08-23,118.36998351571141,118.85092771311135,117.64856721961151,118.68740844726562,305000
2023-08-24,118.78358100423371,120.67850207983349,117.91788008915955,120.34184265136719,278400
2023-08-25,120.78433122188993,122.81391641913827,120.21682056433897,122.67925262451172,493000
2023-08-28,122.76581404817435,124.64150083437637,122.76581404817435,124.47798156738281,331900
2023-08-29,124.85310126121999,126.9307834616003,124.46833714415864,126.7961196899414,472400
2023-08-30,127.32515422708775,128.18123425828122,126.68069080380738,127.8253402709961,298900
2023-08-31,128.20051846264744,128.63336542092802,127.2001607217933,127.5079574584961,305800
2023-09-01,128.02736313503453,128.6910538603283,127.46946605285355,127.49832153320312,252000
2023-09-05,126.66146169919045,126.95003116428316,122.50611130451453,122.7081069946289,325300
2023-09-06,122.91972673122726,123.13133602720143,121.39032026937542,121.59232330322266,291100
2023-09-07,121.47688528995286,122.32334442871263,120.37071217704028,120.58232879638672,328600
2023-09-08,120.72660753492579,121.84239419256309,120.35147166964357,120.53422546386719,238800
2023-09-11,122.15020697473304,123.05438442733607,121.59231727500303,122.16944885253906,333500
2023-09-12,121.30375701204977,122.43878571398,120.6400516113284,121.70774841308594,258000
2023-09-13,120.98633519332367,121.76546253535643,120.34187165513295,120.59196472167969,279300
2023-09-14,121.20756923679127,122.44840625475486,121.20756923679127,121.92898559570312,217900
2023-09-15,121.6692627655092,122.35220265507273,120.39957035952995,121.13060760498047,589200
2023-09-18,121.5442225254737,121.5442225254737,120.15910083878411,120.8516616821289,175100
2023-09-19,120.8997477295657,120.8997477295657,119.3318650395971,120.53422546386719,218600
2023-09-20,121.04403393623863,121.29412697753905,119.81281794618458,119.8801498413086,206200
2023-09-21,119.59158924649155,119.61082378593244,117.53314861088099,117.56200408935547,335700
2023-09-22,117.66781895592811,118.21609509335627,117.45620231716168,118.00447845458984,341200
2023-09-25,117.34077819162175,119.39921903192217,116.84059939153208,119.31265258789062,258800
2023-09-26,118.82208002776298,119.48578541206082,118.53351789357484,118.88941192626953,547000
2023-09-27,119.3126479723948,119.70701843321653,118.1872402117581,118.81246185302734,362400
2023-09-28,119.13950746199725,120.85166777851079,118.56237584297187,120.68814849853516,219300
2023-09-29,121.66927149003342,121.99631738853884,120.03406401338636,120.2745361328125,330900
2023-10-02,119.7839706824147,120.69776913733538,119.26455002499831,120.2841567993164,244100
2023-10-03,119.29339878482428,120.53423572898005,117.82171067436374,118.1872329711914,236300
2023-10-04,118.84129989256658,119.90899647012523,117.66779501715077,119.4953842163086,208200
2023-10-05,119.2356870928497,120.16872002997181,118.11990034706665,119.03369140625,466700
2023-10-06,118.8990326896935,121.86165089685026,118.6874160550928,121.59232330322266,491700
2023-10-09,121.02480176411956,122.3714470315645,120.89975891033677,122.10211944580078,275700
2023-10-10,122.3906880798059,123.70847793865926,121.68851359938441,121.71736907958984,322000
2023-10-11,122.66963958740234,122.83315887160722,121.82318034684748,122.66963958740234,212900
2023-10-12,122.37145501488276,122.54459523683002,120.29377235151563,120.64005279541016,189300
2023-10-13,121.19793811935457,121.842401584592,120.6208065484162,121.16908264160156,324900
2023-10-16,122.50610354279256,122.57343543523135,121.36145403270736,121.88087463378906,275200
2023-10-17,121.2075666764976,123.44876120681954,121.2075666764976,122.62154388427734,314400
2023-10-18,122.03479307787752,122.8042994522595,121.46727506334268,121.9482192993164,287300
2023-10-19,121.27489954662221,122.61192392718466,120.61119415676508,120.93824005126953,443900
2023-10-20,121.13060925368268,121.65965082113568,117.28305556639171,117.56200408935547,446500
2023-10-23,117.08106243237853,118.46618413837787,116.59049727173269,116.86944580078125,379000
2023-10-24,117.4754210963126,119.0529173972163,117.08105069039952,118.6393051147461,312100
2023-10-25,118.15677276144453,119.4596516517281,117.63561973271062,118.09886932373047,431300
2023-10-26,117.02760662773419,121.01345262337937,117.02760662773419,119.12186431884766,576000
2023-10-27,119.16048296205888,119.51756400540363,116.15903183159877,116.94075775146484,364000
2023-10-30,117.66457150071054,118.0506115995379,116.63191847013125,117.90584564208984,283100
2023-10-31,118.23399361161658,118.60072769087235,117.57772758977254,118.00236511230469,422900
2023-11-01,117.84793391063505,119.12186099293919,117.36538566183647,118.63931274414062,360500
2023-11-02,119.40174500651636,119.9518497393298,118.68757562918539,119.26663208007812,384300
2023-11-03,120.08697401221825,121.57322370656975,120.08697401221825,120.97486114501953,278000
2023-11-06,120.89764432950582,121.34159523213705,120.39579735185238,120.82044219970703,173500
2023-11-07,120.27034577683186,120.62742682079855,119.83604787151418,120.20278930664062,205000
2023-11-08,120.5212478211661,121.10995727302534,120.06765865285827,120.75287628173828,175800
2023-11-09,121.30299893753235,121.30299893753235,119.7395397313075,120.04837036132812,118600
2023-11-10,119.90359356052024,121.3994961613825,119.5658112399359,121.33193969726562,195600
2023-11-13,121.01345529818798,121.1003178161299,120.02906006116073,120.1834716796875,183100
2023-11-14,121.55390364196714,123.39724152783667,120.93624245875796,123.38758850097656,267400
2023-11-15,123.35865603473404,124.30445401086837,122.90505942184835,123.25249481201172,388600
2023-11-16,123.19458405532637,124.13072158442283,122.41285079230998,123.09807586669922,217000
2023-11-17,124.07282146383467,124.57467583908908,123.15598260268955,123.46481323242188,162700
2023-11-20,123.00155090272261,123.1945746283093,122.01715567308845,122.87609100341797,213900
2023-11-21,123.01121297209009,123.8218979529415,122.76028579193338,123.44551086425781,160600
2023-11-22,123.96665215202738,124.69047458350228,122.91470041923974,124.08247375488281,174800
2023-11-24,124.46850623760841,124.46850623760841,123.6288769312162,124.04386138916016,65900
2023-11-27,123.35865496882094,123.82190460607035,122.42251002914217,122.56727600097656,367500
2023-11-28,122.56726027052797,122.57691329757223,121.10996243713889,121.22577667236328,218000
2023-11-29,121.25473635567784,121.98821183407688,120.55986562488955,120.9941635131836,331800
2023-11-30,121.07136390507863,122.69272646591232,120.45370267838986,122.46110534667969,301000
2023-12-01,122.00752090603291,124.05352116174625,122.00752090603291,123.62889099121094,218300
2023-12-04,123.00155352374544,124.38164926101614,122.46110180679085,123.93769836425781,192000
2023-12-05,123.77363433441964,124.1982791787773,121.48635282699652,121.59251403808594,178000
2023-12-06,121.9785653558879,122.85680684420771,121.48636400130093,121.95926666259766,179500
2023-12-07,121.83378385096688,122.67342048254547,121.59250971853534,122.07505798339844,254000
2023-12-08,121.94959920990867,123.04980867489485,121.2354298329936,122.87609100341797,265800
2023-12-11,122.81818541054639,123.22352418250709,121.93029101464404,123.11736297607422,338000
2023-12-12,123.19457459310557,123.6288724532248,122.2584297728089,123.03050994873047,210300
2023-12-13,122.74098611390058,124.48781597010334,122.74098611390058,124.10176849365234,425000
2023-12-14,124.57466295525923,125.47219566747552,122.45144615272285,122.95330047607422,412900
2023-12-15,122.72169244407033,124.09212790759474,121.57322508471096,121.58287811279297,713000
2023-12-18,122.28738762368339,122.76993591705903,121.48635568953519,122.61552429199219,240500
2023-12-19,123.25247352791789,123.65781965517932,121.63111110817805,121.82413482666016,659100
2023-12-20,121.62147008946454,122.50936455594228,121.08101835055845,121.18717956542969,346400
2023-12-21,121.83380376451974,121.83380376451974,120.49231995798498,121.51532745361328,421900
2023-12-22,121.98820682835046,122.60586803857178,121.71798096926643,121.86273956298828,312200
2023-12-26,121.73728030157127,122.44180403483686,121.20647424478882,121.43810272216797,274700
2023-12-27,121.71797248147908,122.05575478177946,120.66601347414141,120.90728759765625,283100
2023-12-28,120.61777069727657,121.40914957794178,120.05801292816882,120.83008575439453,343600
2023-12-29,120.82043808829643,120.98450273280184,119.24732601714967,119.30523681640625,313500
2024-01-02,118.33048400507984,119.76847574725994,118.02165341555587,118.59105682373047,313100
2024-01-03,120.78182769015574,122.81818188143322,118.85163470226065,120.9844970703125,531700
2024-01-04,120.8107843913824,121.5249537647008,119.79743008568695,119.88429260253906,353300
2024-01-05,119.45963623768402,120.02904696644276,118.69720916604861,119.86497497558594,423000
2024-01-08,119.73953213187556,120.79149123065565,118.09887089459961,120.00975799560547,352400
2024-01-09,119.39209643843853,120.28963654792885,118.6779270344352,120.27998352050781,250300
2024-01-10,120.11591846241205,121.04241028792013,119.89395037419895,120.82044219970703,279600
2024-01-11,121.00380927134914,122.53831669687723,120.57917177350777,122.41284942626953,323100
2024-01-12,123.42619088636619,123.50340037356722,121.52494960187714,122.01715087890625,231700
2024-01-16,121.48634060646516,122.39353364157216,121.12925962608607,122.38388061523438,257500
2024-01-17,121.54425926799404,122.82783205612957,121.4960014962835,122.26808166503906,336900
2024-01-18,122.876100447986,125.47220532952528,121.90135080738276,124.63257598876953,444200
2024-01-19,125.18269780321808,126.871617006182,124.05352171988879,126.23464965820312,418000
2024-01-22,126.33114430629186,127.20938578312573,126.00301498292735,126.61103057861328,266200
2024-01-23,127.19973175247551,127.24798952655084,125.78103860665047,127.22868347167969,217800
2024-01-24,127.50855023197329,127.67261487673112,125.98369593067731,126.21532440185547,294400
2024-01-25,127.4216965566274,127.75948624024079,125.82929313663216,126.6689224243164,332300
2024-01-26,127.08390439522177,127.96214577452949,126.81367854408161,127.10321044921875,219900
2024-01-29,126.47590503677381,127.9621472350077,125.93545332832512,127.63401794433594,187800
2024-01-30,127.42169552655902,128.44469550700896,127.03566279943983,127.63401794433594,228400
2024-01-31,128.14711904243458,128.53436707997895,125.03953294065279,125.73656463623047,537500
2024-02-01,126.29804406272626,126.92730171682662,125.47515503321043,126.33676147460938,298800
2024-02-02,125.81399845204739,126.54007181280666,124.58451009166825,125.94953155517578,344800
2024-02-05,125.01048880090507,127.25646828783212,123.96494127747282,126.48198699951172,319500
2024-02-06,126.31740568420186,127.20805395014796,125.17505729048875,126.9466781616211,369700
2024-02-07,127.21774119888832,128.19551470320488,125.24281332521821,127.59529876708984,393000
2024-02-08,127.4404150760117,130.5383255987766,127.34359937104924,127.90509796142578,620700
2024-02-09,127.89540969408253,134.7689104528772,127.31454506556426,134.52688598632812,650900
2024-02-12,134.7204793143427,135.9886849362891,133.12310924807548,133.2199249267578,491300
2024-02-13,132.32930021222504,132.9488822581375,130.67384635486445,131.59353637695312,275900
2024-02-14,131.91303358615116,133.07476305152232,130.85781026804267,132.79400634765625,335000
2024-02-15,132.7939868427026,133.41356890629376,130.27694117211416,130.73193359375,471400
2024-02-16,131.0514260757376,133.59752863103694,130.73195195202294,133.1134796142578,453900
2024-02-20,132.76492924425213,135.66922259050702,132.580988302136,135.23358154296875,373000
2024-02-21,134.64308868234346,135.64022856699802,134.5559633965787,135.5337371826172,276300
2024-02-22,135.9887045298492,137.87649236016304,135.60147130332354,136.95680236816406,295700
2024-02-23,137.44085155268917,137.51830115254398,136.11456223867728,136.85031127929688,190300
2024-02-26,136.9858719115386,137.52800444745588,136.30820624164195,137.39247131347656,199200
2024-02-27,137.39245476737844,137.64415490816972,135.34009190799827,135.8338165283203,244600
2024-02-28,135.19488484214043,136.7341719463713,134.88510115200842,135.93064880371094,189600
2024-02-29,136.1435940131674,137.11169178239248,135.36911284338737,135.97901916503906,250600
2024-03-01,135.41751376903366,136.2984714673089,135.1077154081465,135.81442260742188,151400
2024-03-04,136.20170952806765,137.58608257287685,136.0758520614475,137.4311981201172,260300
2024-03-05,137.73128791076408,138.64130227082694,137.21819722213309,137.9733123779297,190200
2024-03-06,138.37021994084103,139.05757592063267,137.93457885855102,138.50576782226562,184000
2024-03-07,139.89013059583016,140.5097125902881,139.25118250942043,140.03533935546875,250100
2024-03-08,140.09345993941886,140.44197579004816,138.40896419937695,138.52513122558594,185200
2024-03-11,138.23468763130884,138.8058765983286,137.45053072424915,138.18629455566406,226700
2024-03-12,138.24439416826982,138.2928020215548,136.9664977471601,137.86683654785156,242200
2024-03-13,138.43798895737592,138.43798895737592,136.4340193693208,136.6566925048828,336800
2024-03-14,136.8503260525416,137.10202620024066,135.88222810784958,136.4340362548828,235200
2024-03-15,135.57242007632507,137.86682208776077,135.2820025310812,136.50180053710938,599500
2024-03-18,136.43402821831805,136.79223448171572,134.49783244298447,134.8173065185547,299700
2024-03-19,134.44943456936542,135.84349784138894,134.44943456936542,135.059326171875,253000
2024-03-20,135.17551943672254,135.6014848917867,134.70114613049162,135.50466918945312,220000
2024-03-21,135.83380611845956,137.08266060945118,134.85603261400937,136.6373291015625,255800
2024-03-22,137.47958214730536,137.9055476013454,136.55021640394727,137.07298278808594,276000
2024-03-25,136.69543011458305,139.45451523192946,136.66638835730595,138.3992919921875,316300
2024-03-26,138.2734460223838,139.70622699782123,138.07013893254282,138.6316375732422,314200
2024-03-27,139.08660656444317,140.5193871456138,139.08660656444317,140.04502868652344,218200
2024-03-28,140.1999296948087,140.71302034415112,139.06724227584522,139.29959106445312,247800
2024-04-01,139.20278768938965,139.20278768938965,137.58606600215256,137.75064086914062,204400
2024-04-02,137.3149751577352,137.3149751577352,135.9112364375765,136.14358520507812,202600
2024-04-03,136.18232831953642,136.6857433581489,135.40784705367142,136.38563537597656,258700
2024-04-04,137.3053243590496,138.1959726377349,136.47275958975655,137.22787475585938,403600
2024-04-05,136.86970117154823,138.2056663783431,136.45341134644306,137.20852661132812,288300
2024-04-08,137.15040168122644,137.83775755940698,135.91123778625203,136.02740478515625,312500
2024-04-09,135.9403078901939,136.59862215595857,134.91412646050384,135.8338165283203,242600
2024-04-10,134.5462509693493,135.74669776324401,134.0331602299272,134.95285034179688,200700
2024-04-11,134.8173252418579,135.5724405173476,134.03316820746505,134.6914825439453,265300
2024-04-12,133.76208470665995,134.51719988484666,131.62259662579817,132.82302856445312,299200
2024-04-15,134.18804610778258,135.3497605952717,133.4329309523146,133.79112243652344,319600
2024-04-16,133.39420463004214,134.94316719612974,132.97792961895718,134.16868591308594,281700
2024-04-17,134.44943883100882,135.03028869809586,133.93634813434798,133.9847412109375,565400
2024-04-18,133.9750570093757,134.99156267697953,133.81048215225894,134.67208862304688,246600
2024-04-19,134.62366344073803,135.45622805140553,134.34292160816344,134.8947296142578,276600
2024-04-22,135.0980663323081,136.6470141255359,134.80763400482732,135.843505859375,298800
2024-04-23,135.31104215956182,136.65669759538656,135.06901769432713,135.6789093017578,417200
2024-04-24,135.88280137491373,136.80518972389316,135.58181289617383,135.94105529785156,559200
2024-04-25,135.7760094089554,137.14503597865468,134.8827479436081,136.1061248779297,694400
2024-04-26,137.87323164710924,144.19403432783037,137.77613189586884,139.16458129882812,489500
2024-04-29,140.68897697417842,143.7183150448104,140.17438077543662,142.1259765625,676700
2024-04-30,141.50454336149315,141.85408171786466,139.8733594266455,140.18406677246094,585100
2024-05-01,140.77636391358544,142.9318483462627,140.37827561400445,141.155029296875,359600
2024-05-02,141.5239675984383,142.46577897675033,141.06762539181938,141.6793212890625,356500
2024-05-03,142.8347262098354,142.85414912308485,140.63069223929037,142.54344177246094,303300
2024-05-06,143.465818493184,144.7474639874066,142.88326448108887,144.7086181640625,260200
2024-05-07,144.00958866873592,146.00971937546657,144.00958866873592,145.368896484375,392900
2024-05-08,145.36887962927,146.4854527186998,145.13584910988936,146.40777587890625,223500
2024-05-09,146.6116820419674,147.3204628465896,144.3105630316223,144.7474822998047,299100
2024-05-10,144.62126017257594,144.6698100517693,143.78625262261644,144.1746368408203,186300
2024-05-13,144.21346995257653,145.13585840929454,142.59200470826642,143.57264709472656,167500
2024-05-14,143.99014505242278,143.99984910137368,143.18426452924012,143.6017608642578,137600
2024-05-15,143.66003210063693,144.02897856662815,142.5046131956969,142.99978637695312,211100
2024-05-16,143.0871700529018,143.60176615776547,142.17448569624776,143.25222778320312,235500
2024-05-17,143.5532556287275,143.8639482284669,142.85417876013253,143.37847900390625,169500
2024-05-20,143.30080654113115,144.09698320517253,142.7667874146821,143.86395263671875,163400
2024-05-21,143.64060931065208,144.35909414501361,142.81530585917272,144.27171325683594,280400
2024-05-22,143.7668498771203,144.5047576961729,143.18428093579104,144.46591186523438,283300
2024-05-23,144.33967093846064,144.62123648711966,143.27163303249756,143.42698669433594,171700
2024-05-24,144.1649355408977,144.5047699213138,143.077489228118,143.78627014160156,162300
2024-05-28,143.32989260159044,143.4852462695525,141.5822156907114,142.44635009765625,318400
2024-05-29,141.41714913451602,142.43663725250155,140.3102801303625,140.6306915283203,229700
2024-05-30,140.91228668269574,142.70851373087208,140.78605995699684,141.89292907714844,328100
2024-05-31,141.84439598117072,143.533834234088,141.67933822091052,143.3979034423828,358900
2024-06-03,144.18433298516325,144.18433298516325,142.0288488421779,143.85421752929688,266200
2024-06-04,143.3590315880983,144.07753125118836,142.43664318212836,143.8833465576172,287900
2024-06-05,143.4270158524189,143.89306211733856,142.8056158940781,143.62120056152344,229200
2024-06-06,143.7085510142787,143.7085510142787,141.17440183665215,141.7181396484375,197600
2024-06-07,141.53367596430135,142.07739902580767,141.22296860610217,141.320068359375,179100
2024-06-10,140.62100939036216,141.5725248682501,139.80542469502964,141.35891723632812,125800
2024-06-11,140.6986800796317,141.50456068926422,140.15495697321543,141.2715301513672,147700
2024-06-12,141.9900071614803,142.0579651312444,139.88307305333473,141.5919189453125,221300
2024-06-13,141.65017286663635,142.27157271965928,140.8054613767583,141.5919189453125,232400
2024-06-14,140.8734504649213,141.1550309006414,139.50442375003365,140.5433349609375,141500
2024-06-17,140.65981624752195,142.4172120684738,140.3685466316063,142.077392578125,303800
2024-06-18,142.22305259413477,143.39789457614634,142.2133485436648,142.4269561767578,219900
2024-06-20,142.3977978909361,143.24250937170754,141.436563753432,141.57249450683594,199900
2024-06-21,141.6307756362361,142.8638715174382,141.0870525181657,142.58230590820312,444100
2024-06-24,142.94150847943163,143.9221506283652,142.40748956057092,142.45603942871094,182900
2024-06-25,142.52403514640127,142.53375401180762,140.30059282386082,140.65013122558594,194500
2024-06-26,140.05785425717647,140.5821544372045,138.80535032884424,139.53355407714844,192400
2024-06-27,139.68885803222656,139.6985768949275,138.13536598004555,139.68885803222656,377300
2024-06-28,139.60152272147332,140.1258377569006,136.01875763564942,136.71783447265625,435100
2024-07-01,137.2712545772139,137.36833951304502,134.36814387510577,134.51377868652344,306400
2024-07-02,134.4555328904598,136.41683242305885,133.75645612270853,136.31973266601562,259400
2024-07-03,136.78579030057608,137.2906675416146,136.4848018027494,137.11590576171875,143300
2024-07-05,136.89258674062816,137.32950598220694,135.66919508579755,136.80519104003906,207000
2024-07-08,137.53340696834337,138.35871046567937,137.38777214662196,137.39747619628906,249300
2024-07-09,136.76634544453174,137.16443363310623,135.68860352872045,135.9701690673828,238400
2024-07-10,136.65955303485114,137.51398340041877,136.48479126844396,137.18385314941406,142000
2024-07-11,137.09648258623827,139.13545890652216,136.65956332198957,137.9606170654297,244500
2024-07-12,139.2422698494713,141.2618233593471,139.2422698494713,140.38796997070312,263900
2024-07-15,140.55303808812164,141.4560185081972,138.98012261389596,139.26168823242188,319900
2024-07-16,139.66949821673376,141.07735596844665,139.66949821673376,140.35885620117188,178800
2024-07-17,140.14523913079555,141.5336886876332,140.14523913079555,140.65013122558594,242300
2024-07-18,140.40738917518402,142.97066571318356,140.3976851256369,142.0288543701172,434200
2024-07-19,142.3298497313873,142.3298497313873,140.45594581987174,141.69874572753906,251200
2024-07-22,141.74729152284237,143.2716569904321,141.0287918281976,142.91241455078125,235700
2024-07-23,143.572641002004,144.19404091845544,141.43657971516106,141.7958221435547,234500
2024-07-24,141.82495301591825,142.3686760490821,139.71800403939616,139.95103454589844,250600
2024-07-25,139.1134168154453,140.30167233708127,137.54531009340042,137.80828857421875,558100
2024-07-26,139.40560564885226,147.35326223129871,138.64590329069,142.84375,562800
2024-07-29,142.76583084099468,144.48977767817135,141.39251700694314,143.95408630371094,390900
2024-07-30,143.5450338076538,144.05149220142636,141.62629393482098,141.9574432373047,411000
2024-07-31,142.687920277237,144.9767768202367,141.62628675803276,143.15542602539062,280600
2024-08-01,143.0580564170797,145.64882955447564,141.64577481833908,143.2041473388672,335300
2024-08-02,142.76584278576115,143.17491218000953,140.00948044813856,141.8990020751953,213500
2024-08-05,139.69779019041522,139.69779019041522,135.85057640594786,137.01934814453125,448500
2024-08-06,137.65246713764915,142.28860227483594,137.43819054803106,141.15878295898438,476000
2024-08-07,142.21068163315522,143.42815549610452,139.7367812828085,139.8634033203125,353600
2024-08-08,140.70101663202263,142.356778003838,140.70101663202263,141.7723846435547,268600
2024-08-09,141.62628524099554,141.62628524099554,139.73676366603377,140.2042694091797,263200
2024-08-12,140.22374527361563,140.42827252274284,139.05497355052955,139.56143188476562,221100
2024-08-13,139.77571975776996,141.5191504756012,139.37639966606926,140.61334228515625,212000
2024-08-14,140.37960449405662,141.04190311093822,139.75625849980418,140.15557861328125,115700
2024-08-15,141.22696922822865,143.50607675102486,141.22696922822865,143.18466186523438,277500
2024-08-16,142.30806341467064,143.01906387906809,141.8210739450238,142.90219116210938,250600
2024-08-19,142.51262572122243,143.88592492526362,142.12302517326572,143.1457061767578,191200
2024-08-20,143.15544136166255,144.45083532458932,143.15544136166255,144.25604248046875,387200
2024-08-21,144.31447092085256,145.6780504782827,143.6229541329459,145.4442901611328,267300
2024-08-22,145.67805355296156,146.48644308563473,144.8014634914536,145.11314392089844,200400
2024-08-23,145.76571861816686,146.61307569653127,145.55144202289785,146.52542114257812,221400
2024-08-26,146.75914391028522,148.69736740875544,146.23320180620857,146.252685546875,235500
2024-08-27,146.10657244845748,147.5967590072151,145.9409978154554,147.26560974121094,208300
2024-08-28,147.00265865265132,148.01560524076524,147.00265865265132,147.59678649902344,249000
2024-08-29,148.58049863148904,148.9311316640923,147.27537034525355,148.31752014160156,187100
2024-08-30,148.23961278387767,149.447352191514,147.6941868777649,149.203857421875,178500
2024-09-03,148.15194689459446,148.41492538696468,145.83387210929124,146.13580322265625,362400
2024-09-04,145.7072750829975,146.97343598691867,145.7072750829975,146.807861328125,175800
2024-09-05,147.1487592794206,147.81105791158635,146.04815817755215,146.79812622070312,200600
2024-09-06,146.46697415286368,149.13566723576417,146.46697415286368,148.41493225097656,319100
2024-09-09,148.59998302653705,149.0772232245831,147.49938200179562,147.9571533203125,241500
2024-09-10,147.91819898327566,148.81425795867298,147.49939511007815,147.56756591796875,158100
2024-09-11,146.86629136229539,146.95396076989897,144.76250795288001,146.9149932861328,178000
2024-09-12,146.963724985921,148.05457696453936,146.06766588037829,148.00588989257812,200400
2024-09-13,148.22986559888577,149.02852064652984,147.9474033678148,148.31752014160156,138600
2024-09-16,149.05773552118288,149.18435754345714,148.11298958996787,149.00904846191406,182900
2024-09-17,149.99278031830573,151.52193462791402,147.91820009450953,149.0480194091797,259900
2024-09-18,149.75900813476628,151.4440025327287,148.73634205746214,149.08697509765625,214200
2024-09-19,150.98625109226774,154.67762550954814,150.98625109226774,152.81732177734375,412400
2024-09-20,152.2426587848195,152.2426587848195,150.4602753884125,151.8530731201172,663300
2024-09-23,152.10629117339244,152.8270409482074,150.7135084054571,151.90176391601562,315800
2024-09-24,152.1160493204721,152.99263943106746,151.96995839957702,152.55435180664062,246200
2024-09-25,153.2068961113986,153.7620564003903,151.8140984456662,153.05105590820312,284100
2024-09-26,153.8302359516064,154.9210876071616,153.59647565609922,154.2587890625,371600
2024-09-27,154.5509862737545,157.34631621260434,154.14191686210978,155.72950744628906,354300
2024-09-30,155.14510798319304,156.24570900619995,154.7944749495995,156.02169799804688,289800
2024-10-01,156.3625791144633,156.3625791144633,154.91135994387946,155.8074188232422,192200
2024-10-02,155.70028846125726,155.94378321896212,153.84973424739667,154.61917114257812,186900
2024-10-03,153.8789526282023,156.2846820263738,152.564074990201,154.80422973632812,367000
2024-10-04,155.77820432469008,157.26839101232096,155.18407653760102,156.40155029296875,350500
2024-10-07,155.2424969824321,155.4859917085393,153.89840133856404,154.5607147216797,223300
2024-10-08,154.16140851662,154.88215839036292,153.0121203289736,154.541259765625,205900
2024-10-09,154.2296012026817,155.88536275157466,154.00557530229472,155.54446411132812,152600
2024-10-10,153.93736604144004,155.23275974437976,153.93736604144004,155.07691955566406,168500
2024-10-11,156.75218568056042,157.70668095780067,156.17754162622376,157.3463134765625,194400
2024-10-14,160.696818031185,163.39472945404907,159.2066311881111,162.83956909179688,469700
2024-10-15,162.96617430440529,165.2452816100452,162.15776994657773,164.290771484375,397300
2024-10-16,164.31025487859057,164.79724438022347,161.6025944384509,161.71946716308594,330000
2024-10-17,162.63500734074424,163.94015048027507,162.18698532860228,163.52133178710938,238200
2024-10-18,164.6998826021437,164.6998826021437,163.41422297183175,164.2421112060547,171500
2024-10-21,164.0862524476999,164.1057361900711,161.97271968352462,162.00193786621094,217900
2024-10-22,161.40779833915946,162.04087873375656,160.52147389733162,161.49545288085938,228500
2024-10-23,162.1772317157538,163.60898197974547,161.8363479958803,163.28756713867188,318100
2024-10-24,164.38140383544402,164.39116447584829,162.26216763017436,162.65281677246094,547300
2024-10-25,164.9673259462908,165.8755720020447,160.75818090850115,164.9575653076172,518900
2024-10-28,165.92441114185215,167.3990873642211,164.8110872205768,165.1431427001953,350000
2024-10-29,165.0747671080742,165.52400985615543,163.71729312603756,164.7524871826172,338100
2024-10-30,164.4107173273801,166.21741950025412,164.18608845963814,165.07479858398438,290300
2024-10-31,165.1333689439496,166.29552588082868,163.9321545452615,163.98098754882812,329900
2024-11-01,164.16654807832185,166.98892289403057,163.69776911458624,165.44589233398438,316300
2024-11-04,165.66072177477935,166.5787284860389,164.24463934900223,164.32276916503906,191800
2024-11-05,163.81495853194275,166.37364684373878,163.81495853194275,166.32481384277344,206200
2024-11-06,171.05156441416634,171.05156441416634,168.1120023975292,169.10813903808594,264100
2024-11-07,170.12379617937486,171.35432228905614,169.47923630304092,170.6218719482422,412300
2024-11-08,170.61209897781401,173.6786238548333,170.40702122427004,171.6472930908203,309200
2024-11-11,172.19418764538844,173.86416596467407,171.78400236870633,172.0281524658203,189100
2024-11-12,172.51646680557812,173.09267240733516,170.85624898942092,171.5886993408203,179800
2024-11-13,171.39337158203125,172.26254534897026,170.95390437883552,171.39337158203125,168400
2024-11-14,171.05154146977196,171.67656508355398,169.84056660029717,170.026123046875,198200
2024-11-15,168.92257425336157,169.69408202115162,162.28168847937133,162.59420776367188,620500
2024-11-18,162.49655239968402,163.8930988274997,160.4847578059515,162.78953552246094,384400
2024-11-19,162.52584959099735,163.74660018722383,162.31099629392224,162.99461364746094,287600
2024-11-20,163.0922544076903,164.98686142400987,161.77383800717232,164.78176879882812,221800
2024-11-21,164.7427501806107,166.24670848012713,163.81498263273267,165.9049072265625,205100
2024-11-22,166.19783911675128,168.04362806955587,166.19783911675128,167.49671936035156,241600
2024-11-25,168.0241100492806,169.94801412387145,167.7213662946961,168.4635772705078,270100
2024-11-26,168.81514749207574,168.81514749207574,167.1549297751935,168.0143280029297,140300
2024-11-27,168.62958510670097,169.81127811822287,167.50650063518984,167.71157836914062,167200
2024-11-29,168.55145899910121,169.43040829774364,168.06315880043525,168.91281127929688,117300
2024-12-02,168.9323215272417,169.0592843391612,166.8423974094864,168.71746826171875,170900
2024-12-03,169.39132382716835,169.39132382716835,167.0865464581629,168.3658905029297,160100
2024-12-04,167.86782016783718,168.84442043989435,167.02794333779852,168.5514373779297,173400
2024-12-05,167.98502374389864,168.40496965056505,166.5396593733903,167.09632873535156,245000
2024-12-06,167.5846542721195,168.6100728910936,166.85220388614303,167.14517211914062,209200
2024-12-09,167.54556559711838,169.4108759749143,166.24668525088177,166.7935791015625,301700
2024-12-10,166.72522539571543,167.36000970992765,164.25442751782737,166.91078186035156,287000
2024-12-11,167.85808411107303,170.02613822467129,167.73112128855698,168.27801513671875,418600
2024-12-12,167.6529998247031,168.5612460049008,166.7838260080303,167.6237030029297,178300
2024-12-13,166.91076951474722,166.99865996989303,165.8462787089003,166.21737670898438,153200
2024-12-16,166.158796503823,166.9303042864774,163.66846242787886,163.70753479003906,236100
2024-12-17,162.99458751218418,163.00436305250057,159.02959259568405,159.27374267578125,511900
2024-12-18,159.85971564038562,160.57262973216018,154.21496674015316,154.50794982910156,468600
2024-12-19,154.80093483209816,157.78934478191135,154.5274878931726,155.1525115966797,404700
2024-12-20,155.00604085611798,156.0412350572968,153.78529016571997,154.47866821289062,730200
2024-12-23,153.49226783435589,155.18178218605982,153.2871901156991,154.81068420410156,194900
2024-12-24,155.0645922806042,155.68961586782322,154.22471543824068,155.6212615966797,100500
2024-12-26,154.71306485845193,155.89475813812268,154.71306485845193,155.1330108642578,164500
2024-12-27,154.12707581536193,155.84588708263334,153.92198318319998,154.4493408203125,145000
2024-12-30,153.32624728896786,153.80478680118333,151.37304668656063,153.06256103515625,221700
2024-12-31,153.59970058644706,154.54700411025723,152.52543424962974,153.42391967773438,317100
2025-01-02,153.96104492700826,154.4102876614351,149.8593262852289,150.55271911621094,239400
2025-01-03,150.43551553521377,152.07621191768425,149.29289488218893,151.86135864257812,250700
2025-01-06,150.39645072499704,151.0214743397327,147.89635626605445,149.3417205810547,369000
2025-01-07,152.27153842764793,152.40826189282907,149.0292327240345,149.8397979736328,361200
2025-01-08,149.3124422881475,150.6503801368408,148.5311589473614,150.54295349121094,228600
2025-01-10,149.14643028639964,150.68946087220502,149.00970681179618,149.85934448242188,350800
2025-01-13,149.3514738966303,151.08006056736804,149.3514738966303,150.2890167236328,349300
2025-01-14,151.18750459843608,151.81252825447513,149.8886242863141,150.9921875,196900
2025-01-15,152.4668462198905,153.24812950251066,150.5624784634495,151.91995239257812,206100
2025-01-16,152.24223989964935,153.49228725350105,151.67580986403843,152.7500762939453,346300
2025-01-17,153.29695885699005,154.2540230320317,152.03713605455528,152.4375457763672,231900
2025-01-21,153.0528143054371,156.50997312910235,153.0528143054371,156.0900421142578,270900
2025-01-22,155.6115107453754,156.98852094407073,154.6349103040437,155.34783935546875,280000
2025-01-23,154.7521187567618,156.07052046490324,154.0391896764672,155.8849639892578,149800
2025-01-24,155.91424200320077,156.71506145375167,153.54111027377883,154.59584045410156,329600
2025-01-27,154.54702831099388,155.20134885433862,152.98446155852756,154.7521209716797,317000
2025-01-28,153.88294176224863,156.59788985115384,153.88294176224863,154.71304321289062,204300
2025-01-29,155.06463698051212,155.10370934820403,152.95517617740975,153.4337158203125,265800
2025-01-30,154.12706586283983,154.96692781170574,152.9160761312112,154.4298095703125,274200
2025-01-31,154.205198107046,155.66033807623802,153.0918742405619,153.47274780273438,834100
2025-02-03,150.96288932286944,153.0821103704106,150.53318276913035,152.3301239013672,364600
2025-02-04,152.43754527468874,154.7520982407055,152.43754527468874,154.00987243652344,302400
2025-02-05,155.01864663986422,156.3702165851502,154.52894911700784,155.05783081054688,262600
2025-02-06,156.54651300778121,156.54651300778121,152.16861560867,153.2263641357422,446600
2025-02-07,154.37224962460155,154.64647905482116,139.11327229734582,140.2297821044922,1221500
2025-02-10,141.2875312819042,141.62053697254157,137.99676315893876,140.32772827148438,621900
2025-02-11,139.33854663703144,140.1220657147679,137.3699528993658,139.35812377929688,377300
2025-02-12,138.06533442672804,140.53341437012955,137.04675510972507,138.78028869628906,423500
2025-02-13,139.80865498326042,140.8174307728779,138.54524183950096,139.8282470703125,665900
2025-02-14,140.72931474861383,142.3159303715822,139.77930010058338,141.806640625,512800
2025-02-18,141.806629148029,144.25511722944964,140.93496798881864,143.87315368652344,489600
2025-02-19,143.12880426353559,144.45099367199094,142.6097260381441,144.01025390625,331000
2025-02-20,143.94170202111488,144.3824268363581,142.91333415595835,143.6576690673828,283100
2025-02-21,144.00049219074296,144.3530751024616,142.20819696820539,143.32470703125,451900
2025-02-24,143.1679734070286,144.25510260272546,141.38548203557013,142.60972595214844,353300
2025-02-25,142.8741632870377,145.27367831527678,142.7174564829414,144.6664581298828,336700
2025-02-26,143.62828832707837,146.10615678438293,143.59890766903789,143.61849975585938,735600
2025-02-27,143.21693102979327,144.14735331926948,142.3648621360305,142.62930297851562,262800
2025-02-28,143.14840249829248,143.92211811173567,141.64992907469428,143.7262420654297,348700
2025-03-03,143.94169395000412,145.7731579400057,142.68806946190705,143.56951904296875,394100
2025-03-04,142.54115535917794,144.90150112160728,142.14940329945776,142.93292236328125,490100
2025-03-05,143.04064002480618,145.78294896164962,143.04064002480618,145.3813934326172,445100
2025-03-06,144.51955819613613,148.3783778054115,144.0298605796166,148.03558349609375,471700
2025-03-07,147.40875736971992,150.20003950079644,146.10616003817648,149.63198852539062,480200
2025-03-10,148.93662196596816,150.82684736023063,147.14432711634848,147.467529296875,391100
2025-03-11,147.24227347370973,147.4577416172004,144.2355379258109,144.84275817871094,304000
2025-03-12,145.18554224213253,145.18554224213253,142.56075547219578,143.0210723876953,299700
2025-03-13,143.39323247450463,144.16694798641166,140.79782663230102,141.7772216796875,238400
2025-03-14,142.237534136815,143.86333345171332,141.56174918397278,143.63807678222656,223600
2025-03-17,143.49118010431383,144.95048427871978,142.854579225438,144.7937774658203,225200
2025-03-18,144.35305965504074,144.49017438690367,142.77623276642447,143.2855224609375,219900
2025-03-19,143.32468002289772,144.42161273286254,142.4726110403041,143.9514923095703,279600
2025-03-20,143.1190209381293,144.38243413158088,140.76846356409283,142.2081756591797,332800
2025-03-21,141.03288741960213,142.46281077035695,139.4266801328764,141.83599853515625,601900
2025-03-24,142.74682361184875,145.12674632792306,141.9241353848884,144.940673828125,463800
2025-03-25,145.43039772394542,146.15514060303397,142.92313347424803,144.17677307128906,325200
2025-03-26,144.0200657855328,145.63606187248132,143.2855193924863,145.4989471435547,630400
2025-03-27,145.22471455574868,146.80154137661276,144.0004705937233,146.27267456054688,312700
2025-03-28,146.2138845778836,146.90926165859608,142.7566211490686,143.9025115966797,239800
2025-03-31,143.5597480313838,146.01802456611082,143.08964252694352,145.32266235351562,372500
2025-04-01,145.81233341659282,146.93863169683007,144.3432409061711,146.02780151367188,240000
2025-04-02,144.950476293581,148.0159877703709,144.950476293581,147.4283447265625,247600
2025-04-03,143.73601082079833,146.95822887417515,143.4422042640377,145.60665893554688,352900
2025-04-04,142.22775504246812,144.91130294785953,137.1544807452422,137.29159545898438,531600
2025-04-07,133.5307294902565,139.19163219073434,128.15385974857273,131.87554931640625,629900
2025-04-08,134.54929557388985,136.4395208305467,128.5749798434124,130.90594482421875,473800
2025-04-09,130.43584131939255,141.44424838924863,128.6141806532637,140.78805541992188,491800
2025-04-10,137.11532993446937,140.4158870228316,134.7354067381973,137.8596649169922,309000
2025-04-11,137.967394489513,141.72828334567205,136.8606880961678,141.14064025878906,203000
2025-04-14,142.79579899814664,143.38342705213157,140.82720541468416,142.78599548339844,249300
2025-04-15,143.0896488919898,143.52057023933776,140.807656215774,140.97415161132812,250700
2025-04-16,141.09164958012386,142.8153944455794,139.63236050898016,142.0122833251953,307700
2025-04-17,142.40405194984112,142.75663480933545,137.8107011490633,140.8664093017578,390600
2025-04-21,140.347331860725,141.08187824351555,138.19266546008294,139.6421661376953,291600
2025-04-22,141.52259151328374,143.79479531157602,140.631338388382,143.0112762451172,217800
2025-04-23,144.823151790697,146.24328667195422,144.1865509396658,144.99945068359375,537000
2025-04-24,144.88192409202932,148.86806971088194,142.4628317080614,148.33920288085938,424500
2025-04-25,147.74175781185858,149.84745131334506,144.52934305768525,145.98863220214844,220500
2025-04-28,146.71339348881767,147.91804531450325,145.22470870652703,146.61544799804688,235200
2025-04-29,146.67419752698908,148.84845573678555,145.93965123839249,147.2030792236328,359900
2025-04-30,145.9984330116698,146.89947469973708,144.17675754933848,146.86029052734375,556200
2025-05-01,145.82883124627438,147.8721067076984,144.36514960993844,145.66183471679688,445300
2025-05-02,150.28867188742916,150.29848992197137,145.18047592473235,149.31614685058594,431600
2025-05-05,148.7562082163406,150.51461075676426,148.21593150363898,148.80532836914062,267600
2025-05-06,147.59705042912566,149.355437978684,146.78170385931236,148.25521850585938,312000
2025-05-07,149.19827245283236,150.44583737765655,147.9605105733144,148.7169189453125,318400
2025-05-08,149.10985945249004,151.84078718705774,148.5695827139862,150.6521453857422,302500
2025-05-09,151.1924328459138,151.5755460622504,150.23955882257493,150.61285400390625,231600
2025-05-12,153.0392239180569,153.82510139061208,150.98613045039815,152.7740020751953,352500
2025-05-13,153.55003919391905,153.55003919391905,150.49495171985274,150.92718505859375,339400
2025-05-14,150.90752912864178,150.90752912864178,148.30432613531156,149.78765869140625,350100
2025-05-15,149.65998239804614,152.7347062134107,149.65998239804614,152.2140655517578,278100
2025-05-16,152.43998138798113,154.3751983205255,151.860402608422,154.2376708984375,278600
2025-05-19,153.5991717253283,155.5442069170815,153.5500515711728,155.28880310058594,185400
2025-05-20,157.43029958325823,157.43029958325823,155.12180229520027,155.73085021972656,388100
2025-05-21,154.09034056579173,154.8663850260189,153.07852836340334,153.6875762939453,319800
2025-05-22,153.5991755437167,154.4832783830283,152.81329802579143,153.88404846191406,278900
2025-05-23,152.3810559407016,153.4223372220158,151.53624028030902,153.18658447265625,260500
2025-05-27,154.25736368155583,155.64247130041295,153.92337056462213,155.36741638183594,352800
2025-05-28,155.36739421063615,156.03538034918074,154.4832763933447,154.6208038330078,364400
2025-05-29,155.04323694434188,155.86840167688345,154.05107565802658,155.53440856933594,232100
2025-05-30,155.44598590152702,155.97644460873903,153.77599055020596,155.6031494140625,335100
2025-06-02,154.75833131600515,156.2613301068848,152.51859016122646,154.13946533203125,349600
2025-06-03,153.4223262867034,154.66008809008275,153.24551173728634,153.50091552734375,397800
2025-06-04,153.72685855125366,153.7563276415457,147.63632007524873,147.75421142578125,831900
2025-06-05,148.90357998413,150.632498572694,146.41825295522108,149.79751586914062,482400
2025-06-06,151.64429332994897,151.75235166609104,149.52244371290558,150.60301208496094,264700
2025-06-09,150.0136191980335,150.4753066580511,148.6874500367206,148.9232177734375,388400
2025-06-10,149.47334506320036,150.2985097546009,148.1962959040132,149.83680725097656,323500
2025-06-11,150.29849644880608,150.8780752886444,148.92322208489034,149.23756408691406,380800
2025-06-12,148.7366031149012,151.88991672370113,148.7366031149012,151.62469482421875,337200
2025-06-13,150.2985051515068,151.00579343372206,148.06858195648448,148.49099731445312,361200
2025-06-16,148.5695910137806,150.20026933440568,148.45169963697123,149.0116424560547,346200
2025-06-17,147.9998142251002,148.58921108822153,146.49683048956007,146.81117248535156,379700
2025-06-18,146.48700188455078,148.06857491409224,146.48700188455078,147.0567626953125,383200
2025-06-20,147.6363309167007,148.10786637472864,146.35929693863002,147.6461639404297,570500
2025-06-23,146.85047583401547,151.2218996436103,146.85047583401547,151.0745391845703,356500
2025-06-24,151.84078941040858,151.84078941040858,150.4753180284472,151.15313720703125,246600
2025-06-25,151.14329517579995,151.80146318967252,150.0725448990236,151.21205139160156,264700
2025-06-26,151.80150053124348,152.83296393691444,150.41639295761016,151.75238037109375,658200
2025-06-27,151.92918872409527,153.3535832332286,151.50677339306424,153.06871032714844,643100
2025-06-30,153.27499173184543,153.73669418509692,151.8800663373244,153.6679229736328,315500
2025-07-01,153.66793021902077,156.9784367941011,153.20624273336693,156.20237731933594,338300
2025-07-02,156.21219361043833,157.69552619700025,155.8487164947486,157.48924255371094,293500
2025-07-03,157.76431481113727,158.51089020387988,156.99808835850575,158.196533203125,235100
2025-07-07,158.10811741535406,159.5030428051159,157.7151861749073,158.11795043945312,313900
2025-07-08,158.05901225349746,159.7093565965001,157.02756390215916,157.22402954101562,342700
2025-07-09,157.10611832400417,157.18470756749457,155.30844371561136,156.90965270996094,252800
2025-07-10,156.37922436390042,157.52856416766224,155.53440856933594,155.53440856933594,361600
2025-07-11,155.7603190354981,155.7603190354981,153.86440405350666,155.11196899414062,292000
2025-07-14,154.3654022940558,156.13362296539574,153.92335087356255,154.77798461914062,276600
2025-07-15,154.95479334988428,155.21019713887813,151.34959626569866,151.43800354003906,254200
2025-07-16,151.2022489800424,152.8624112264187,150.83878682765217,152.2435302734375,261900
2025-07-17,152.00779301549812,153.64830436996175,151.78184328588796,153.27500915527344,397700
2025-07-18,154.08053795548372,154.43418210944483,152.18460777221878,153.61883544921875,243100
2025-07-21,153.65810471165034,153.9036904847458,152.49894705753542,152.70523071289062,205900
2025-07-22,153.35357548550758,156.54619042612177,152.48910879729814,156.3595428466797,449900
2025-07-23,157.24368095923748,158.99225063096037,156.33009400189493,158.80560302734375,450500
2025-07-24,158.559320268112,161.82979531304568,157.40675735764995,159.406494140625,431900
2025-07-25,159.63303970514875,160.65752157131263,158.38197744884806,158.58885192871094,296300
2025-07-28,158.79572064833397,159.5640858506177,155.80106845369062,156.3330078125,308500
2025-07-29,156.67779828906407,157.21959813532774,154.8750906357904,156.45123291015625,388200
2025-07-30,156.43152305866946,156.55957390550213,152.60938790987095,154.4514923095703,580700
2025-07-31,153.4565786283827,155.0031696816889,152.8655214674945,154.79629516601562,679700
2025-08-01,154.6288158726098,155.76165777291718,138.9856590147076,139.24179077148438,1012300
2025-08-04,140.98539693056597,140.98539693056597,135.03548860220042,137.05491638183594,839000
2025-08-05,137.26176707147744,138.9659752764255,135.63638251685612,138.12864685058594,540800
2025-08-06,138.21729882019278,138.6605841437307,135.49846914211423,136.47369384765625,515300
2025-08-07,137.71491162131494,139.37970798596095,136.83818640949156,138.39462280273438,564000
2025-08-08,138.59163887027924,139.93135534040795,138.48327889728324,138.65074157714844,428700
2025-08-11,139.222090228796,139.5077583171329,137.12385398637957,137.7838592529297,349500
2025-08-12,138.12864188918144,138.9856611656125,137.15340217271373,137.39967346191406,286100
2025-08-13,137.6065636684466,139.33046288965815,137.1731237449772,139.3206024169922,729900
2025-08-14,138.09908585404855,138.09908585404855,134.405016641309,136.27667236328125,875800
2025-08-15,136.29638497225332,136.8775816161289,135.81368782683418,136.65101623535156,770500
2025-08-18,136.81847442171076,137.4883401327873,135.3014499206359,135.83338928222656,529500
2025-08-19,136.20773671589527,138.4241784468644,136.20773671589527,137.50804138183594,333100
2025-08-20,137.8232781418471,139.14328874260568,137.18296372359896,139.07432556152344,519200
2025-08-21,138.53252821704885,139.78357552390523,138.1483456132288,138.54237365722656,270400
2025-08-22,139.15313972496236,141.1922734473183,139.0841915723422,139.3206024169922,356500
2025-08-25,138.8674588166062,139.4979127296023,136.88744301904194,137.47848510742188,245800
2025-08-26,136.99578214484688,138.0695212185511,135.9515793883002,137.62623596191406,442900
2025-08-27,137.0154742342195,138.47341091192982,136.9563715369727,137.36026000976562,729100
2025-08-28,138.07937388667187,138.07937388667187,135.35068400580442,136.81846618652344,320800
2025-08-29,137.09429553325865,137.7838521169858,136.2865335440943,137.19281005859375,370700
2025-09-02,135.37040364310914,136.46384879424832,134.13904716800675,134.37547302246094,310600
2025-09-03,134.0503903916783,134.1488898889654,132.43485133034417,133.20321655273438,382300
2025-09-04,134.31638220454172,136.41460360260194,133.02590787820503,136.39491271972656,401800
2025-09-05,136.94653328871905,138.71968945525342,135.5772656161853,136.552490234375,440800
2025-09-08,136.52295752982062,137.91193130257207,135.62652636886406,136.23728942871094,616100
2025-09-09,136.1978803964661,137.39968559639797,133.08502244977814,135.0059356689453,637100
2025-09-10,134.09965957050477,135.40982475360394,132.83875165602893,134.21786499023438,685100
2025-09-11,134.71040519706986,136.2175843964125,133.84352538471833,135.05519104003906,477500
2025-09-12,134.58234162242087,135.00593609481896,133.20322828923454,133.21307373046875,261300
2025-09-15,133.94202034472283,134.13903435567997,132.62200993698394,132.83872985839844,298000
2025-09-16,132.77962562814162,133.40023410540573,132.0999294759084,133.19337463378906,474800
2025-09-17,133.40021279614652,135.0256121123868,132.18856241946168,132.64169311523438,377400
2025-09-18,132.88798558145595,133.48888814617573,132.07037810452255,132.49395751953125,254800
2025-09-19,132.65158018177598,133.0850200863436,131.35126046807318,132.4348602294922,877200
2025-09-22,132.11962230163485,132.92739938115005,130.691251766929,130.74050903320312,402100
2025-09-23,131.0261738005905,131.95215627068484,130.00169183165633,130.0509490966797,319700
2025-09-24,130.03125417731107,131.3217134615017,129.38109429893456,129.53871154785156,353300
2025-09-25,129.53870141670419,130.54349251095573,128.32705085173455,128.8688507080078,388700
2025-09-26,129.37123644965243,130.4548211118124,129.00675974879576,130.31690979003906,274400
2025-09-29,130.42527680922657,130.7010994676822,129.4007947965638,130.29722595214844,540600
2025-09-30,129.74557555443596,131.76498814664785,129.74557555443596,131.66648864746094,310400
2025-10-01,131.3413962300209,132.3560326654084,130.33660523425266,132.13931274414062,310100
2025-10-02,131.66648573117217,132.38559368725765,130.97692912730892,131.19363403320312,398500
2025-10-03,130.49423360821496,131.58767874762543,130.45482178395852,131.23304748535156,402000
2025-10-06,130.90797079558112,131.21334480064905,129.45004891757588,129.9130401611328,447100
2025-10-07,130.13959122892322,130.53361925058735,127.8738925263408,128.6422576904297,438800
2025-10-08,129.22345454639873,130.04107697266164,128.31717806976172,129.6470489501953,361300
2025-10-09,129.73569586580498,130.8586922024014,128.25806831600946,128.66195678710938,554200
2025-10-10,128.98704858156654,130.04108184834632,127.95270619480443,128.97718811035156,426000
2025-10-13,129.0363213593292,130.37603789072034,128.21869880410003,128.27780151367188,311400
2025-10-14,128.10048555861533,129.10527677147402,127.11540026045824,127.86407470703125,337400
2025-10-15,127.86407220466812,128.4452689117164,125.95300435865052,126.1894302368164,438300
2025-10-16,126.5243419047704,127.56852978216413,125.94313774513942,127.23360443115234,352700
2025-10-17,127.23361106421747,128.15959357922404,126.92823704995098,127.41091918945312,339700
2025-10-20,127.67689829106764,128.14973499654218,126.11061637022783,128.0610809326172,240500
2025-10-21,128.6619859078428,129.80468841247423,127.19420346493476,128.62258911132812,311600
2025-10-22,128.70137488096933,130.13960588126338,128.04136960320932,128.12017822265625,357500
2025-10-23,128.27838836608,130.0482160538345,128.19928781482736,129.29678344726562,378600
2025-10-24,129.27699821696652,129.41542040316887,127.09188897025071,127.42807006835938,489300
2025-10-27,127.68513804202082,128.43657062662018,127.00290900843953,127.32919311523438,521700
2025-10-28,127.29953923164318,127.65548417782465,126.03396055341749,126.65686798095703,413500
2025-10-29,125.84608767724626,126.06361040803851,122.02957306455488,122.9095458984375,651100
2025-10-30,122.6425973459498,124.10591981246533,121.65386309537952,122.95899200439453,702600
2025-10-31,113.99117408852003,116.76951495369767,102.06704129042897,114.70306396484375,2758200
2025-11-03,114.78215353846566,114.78215353846566,107.07003104374891,111.84561920166016,1661000
2025-11-04,113.07164922422088,114.69317278774453,111.26226373964292,112.8936767578125,1029100
2025-11-05,113.04198468525121,114.73271928879292,111.49955417930168,114.26801300048828,896900
2025-11-06,113.72420198995826,115.64234871180304,112.517952627641,114.84147644042969,880300
2025-11-07,114.92057976181373,115.60280123250854,113.39792818360942,114.91069030761719,697200
2025-11-10,114.68328006091402,115.45449154553131,112.71570107535919,115.06888580322266,514000
2025-11-11,115.64235215314066,118.16362740289492,115.64235215314066,116.93759155273438,484800
2025-11-12,117.00680708571316,118.32182544371216,116.58165860151216,116.82884216308594,547500
2025-11-13,116.96726664292429,120.50692958090833,116.96726664292429,118.84585571289062,679400
2025-11-14,118.42069332802943,119.33033453666947,117.05624283023447,117.27376556396484,521200
2025-11-17,117.1551218108406,118.14385608312521,116.24548809076526,117.99554443359375,820200
2025-11-18,118.3119443710672,118.75687176767599,116.72996353102775,117.96588134765625,817400
2025-11-19,118.16362210922091,118.16362210922091,116.38389759577892,116.6706314086914,598900
2025-11-20,116.67063483535937,118.26249749040201,116.04773500908134,117.24410247802734,507400
2025-11-21,116.79916971414367,120.86286792776397,116.79916971414367,120.1509780883789,509100
2025-11-24,119.48852930748254,121.02107037008182,119.08315219875638,120.10154724121094,740000
2025-11-25,121.03095194765177,122.68213618171329,121.03095194765177,122.04934692382812,543600
2025-11-26,121.63407548431789,123.11717675407199,121.63407548431789,122.41517639160156,538000
2025-11-28,122.23721179455744,124.65961521692697,122.23721179455744,123.34459686279297,315700
2025-12-01,123.47312464549341,123.55222519221778,121.64396787729149,121.89115142822266,536800
2025-12-02,122.37563109798752,122.46462110038372,119.4390968008952,120.2300796508789,325400
2025-12-03,120.08176988930819,122.86011822072538,120.04222715811682,120.68489837646484,543100
2025-12-04,120.82332005860296,122.6821452414219,120.55636513524256,120.64534759521484,708000
2025-12-05,120.6156759451698,122.11855606626924,119.26111499759371,120.53658294677734,537000
2025-12-08,119.55773823925648,120.72444490270962,117.95599365521366,118.71731567382812,496600
2025-12-09,118.25260671307173,118.49979025868578,114.06037589162156,114.41632080078125,640300
2025-12-10,114.86124902547321,116.47289058274676,113.83296456280685,115.84998321533203,734700
2025-12-11,116.6310870053096,117.33308739219939,115.84010415999195,116.68052673339844,389700
2025-12-12,117.18477675810965,120.26963024864754,116.32458281214376,120.10154724121094,656400
2025-12-15,120.11143594513233,121.08039125301917,119.12270172858626,120.95185852050781,588600
2025-12-16,121.28802692871906,122.45473362902362,118.17351257639858,121.44622802734375,644800
2025-12-17,120.73433285185864,123.19627887906455,118.72720364799784,122.2372055053711,567300
2025-12-18,122.2767604710972,122.72169540087228,120.65523693661119,121.23859405517578,457100
2025-12-19,121.95048213130443,122.92933449703057,119.89392056770684,120.02245330810547,1300400
2025-12-22,120.02244905131522,122.30642273678362,119.70605439556444,121.35723876953125,527800
2025-12-23,121.48577799610219,121.64397155088497,119.95323691666961,120.81343841552734,311700
2025-12-24,121.1496037277725,121.7823930301015,120.38828169146663,121.36712646484375,198000
2025-12-26,120.99141254975284,122.08890816765887,120.34873378036154,121.86149597167969,306000
2025-12-29,121.90103810595791,122.90954365167185,120.9419647432383,121.82193756103516,400200
2025-12-30,121.41656795360201,122.89966931682952,121.04084411378047,121.35723876953125,289800
2025-12-31,120.15097596397585,121.94058998507745,119.98289296138277,120.58602142333984,314300
2026-01-02,120.36850209754444,121.61430932967109,119.4193181494529,121.15949249267578,295100
2026-01-05,120.38828287586783,123.17651312401219,120.38828287586783,121.61431121826172,435700
2026-01-06,120.8430922091253,121.46599202442482,118.7568624940921,119.20178985595703,777200
2026-01-07,119.31055741898699,120.57613602320409,116.28503309681528,119.0831527709961,478500
2026-01-08,118.56900865138992,121.98014631699301,118.17351344536358,121.06062316894531,330000
2026-01-09,120.70467850674399,123.5621198728979,120.09166055886544,122.4547348022461,429100
2026-01-12,122.60304703866626,123.88840458144911,121.59454142246342,123.7203140258789,477300
2026-01-13,123.64122184064439,124.0268275973534,121.15949674370285,122.10868072509766,351900
2026-01-14,122.71180688445504,125.72744932780128,122.71180688445504,125.42093658447266,611700
2026-01-15,125.70766789113175,125.78676843900955,123.11718152395939,123.7005386352539,381000
2026-01-16,122.60304567683241,123.78952374665012,121.85160554277793,123.30504608154297,363400
2026-01-20,123.49290649216461,124.1158063396922,122.0493554255934,122.4250717163086,275100
2026-01-21,122.90954323158518,124.2047901340779,122.50416614126715,123.6016616821289,421000
2026-01-22,123.64121667891544,124.98589581561515,122.66236437418617,123.0677490234375,369700
2026-01-23,122.93921055756546,124.85735737798285,122.4745118058816,124.58051300048828,429500
2026-01-26,124.99577817123766,125.55935637440064,123.69064930373163,124.92656707763672,315400
2026-01-27,123.54233481410213,124.87713201390274,122.77112334791536,123.33470153808594,303100
2026-01-28,122.80078648003611,123.6609879626866,121.8614919932062,122.3064193725586,347800
2026-01-29,122.88978028418853,123.86862507511535,121.20892754069328,122.4547348022461,386000
2026-01-30,121.52533188143772,123.60167232496788,121.27814831569736,123.54234313964844,512700
2026-02-02,122.80078342815366,124.49152553193812,122.80078342815366,123.42369079589844,489100
2026-02-03,122.51405462375108,126.48876266797768,122.29653189940339,123.22593688964844,658700
2026-02-04,124.77433039015442,129.44927260782487,123.77184577350829,128.26812744140625,589400
2026-02-05,126.71975064755804,128.1192596554473,121.05225107397254,123.05722045898438,2144200
2026-02-06,126.58078326238557,134.97782150042084,126.58078326238557,133.31031799316406,1045700
2026-02-09,132.5857587104382,138.531180271334,132.2582131007177,137.43936157226562,1043400
2026-02-10,136.78427392403074,139.88104683101494,136.78427392403074,139.126708984375,622100
2026-02-11,137.99519392074043,139.50388475135443,137.56840169460276,138.9678955078125,584300
2026-02-12,139.11678651599092,140.94308767923593,138.3525134196047,139.46417236328125,572700
2026-02-13,139.46416820425452,141.86615414747763,139.36492159879577,141.51876831054688,471900
2026-02-17,138.2234773285034,142.55102629654255,138.2234773285034,140.59568786621094,614700
2026-02-18,140.41703714664675,142.04482998774162,139.791721402891,140.66517639160156,582000
2026-02-19,140.5956812663536,142.25326464590432,139.98030082414553,142.09445190429688,525500
2026-02-20,142.0547550361601,144.0597244456509,140.94309602664507,143.97039794921875,664500
2026-02-23,142.42199361111417,145.15152505885825,142.06467252487357,144.63539123535156,513500
2026-02-24,144.98279666295065,145.8165408414096,142.77931908758302,143.06715393066406,429800
2026-02-25,141.3500320156877,142.5907281428982,139.3847584456305,141.61801147460938,348900
2026-02-26,142.45178416412276,142.8488009040386,139.9505362960431,140.73464965820312,331300
2026-02-27,140.47658357934912,142.9381205686862,139.9505296087492,142.64036560058594,344600
2026-03-02,141.93563886113196,142.2830398395081,140.56590547180699,141.60809326171875,335000
2026-03-03,139.5931967078321,140.26814325067423,135.90088396317486,138.71974182128906,347300
2026-03-04,138.302888395737,138.47162126788456,134.9976717766612,136.02000427246094,389000
2026-03-05,134.98775502807862,135.32522078079646,133.40959299752922,133.72720336914062,452300
2026-03-06,133.0026313554941,133.0026313554941,130.02496050425168,131.096923828125,398500
2026-03-09,129.9951790988654,132.98276993154295,126.58078092139597,132.75448608398438,545700
2026-03-10,132.3574660154593,133.1316591702968,130.42196798314936,131.14654541015625,503100
2026-03-11,130.8190202738326,132.28800044532838,129.0721101988683,131.03738403320312,563800
2026-03-12,130.29295237048808,131.8016279987067,127.68252279954663,127.90088653564453,620600
2026-03-13,129.1812869710477,129.1812869710477,126.10436937058473,127.69245147705078,660600
2026-03-16,128.51628506786432,130.4319280867629,125.06219070801843,128.08949279785156,370700
2026-03-17,129.00263581888095,130.04482370856644,127.28551643200822,128.5361328125,276700
2026-03-18,123.45423058912087,125.63786042046195,120.51626292882625,123.29542541503906,910500
2026-03-19,122.0944332187195,123.8909588849741,120.54603921873606,123.04728698730469,518500
2026-03-20,123.33512999241371,123.33512999241371,119.41452545613383,120.15894317626953,1481500
2026-03-23,122.59071811756196,125.39964869362488,122.0745842329971,123.21602630615234,455200
2026-03-24,122.2433152775169,124.28798013248851,121.95547285876513,123.22594451904297,405000
2026-03-25,124.50634549167631,125.62793211237509,122.78921864642815,124.88351440429688,337200
2026-03-26,124.28798636131239,126.3922023143744,123.19617519683187,123.76193237304688,442100
2026-03-27,123.01751427118627,123.28550132328671,120.85373975633635,121.08202362060547,381400
2026-03-30,121.64777727824665,123.01751071469691,120.19864504103799,122.44182586669922,562000
2026-03-31,123.46415851677581,126.01502957768723,122.67010992701152,125.08202362060547,557800
2026-04-01,126.39219982096562,127.68252689973865,125.38972274230011,125.80659484863281,380200
2026-04-02,124.2085781211438,126.14406117582702,123.32520302720033,125.07210540771484,297500
2026-04-06,123.66266876079281,125.25076596450165,123.66266876079281,125.07210540771484,461100
2026-04-07,124.38723692091199,126.22346576757812,123.8711106378232,124.67507934570312,376900
2026-04-08,130.4021481364575,131.68254004802253,127.19617800807119,131.03738403320312,645200
2026-04-09,130.24332882387228,131.45424955756675,126.39220287440348,130.42198181152344,424100
2026-04-10,131.2656579543429,131.71230555728022,129.87608426848973,130.521240234375,407400
2026-04-13,129.82646170678544,131.43439923843442,126.63042687940094,131.126708984375,396300
2026-04-14,130.2532453341348,131.73216065356567,129.99518597737963,130.03488159179688,315500
2026-04-15,129.83636721114993,130.0547309433663,127.64282491736233,128.68499755859375,407100
2026-04-16,125.9554827551545,129.3599535123959,125.9554827551545,127.33512878417969,393800
2026-04-17,128.68501330537714,131.31529853067389,128.68501330537714,129.65773010253906,401100
2026-04-20,129.59817078840075,131.00759986778516,128.69494031122633,129.945556640625,403600
2026-04-21,129.727195499975,131.2656618627598,125.7470474243164,125.7470474243164,310200
2026-04-22,126.33264680138942,126.33264680138942,122.04480110008107,123.62297058105469,458900
2026-04-23,124.44679072012924,126.49146323670142,123.51379231359721,124.01007080078125,440800
2026-04-24,123.48400922187079,123.48400922187079,121.6577005635927,123.15646362304688,440900
2026-04-27,123.11676141393268,125.2904634945878,122.6204829533344,123.80162811279297,359700
2026-04-28,125.18128618602746,125.70734016180099,122.79914797388655,124.8338851928711,354300
2026-04-29,124.20857785922294,124.96292327213307,121.87607050853111,121.9852523803711,448400
2026-04-30,122.51130595027864,125.14158341040145,120.97283963229869,122.75944519042969,764800
2026-05-01,126.26316859263083,127.5237125861033,117.0224658192811,118.13412475585938,989400
2026-05-04,117.79666211505766,120.84381172589876,116.58574139374336,119.7023696899414,739600
2026-05-05,120.00014032911528,122.78922301811379,119.92073395333378,121.1217269897461,628600
2026-05-06,122.74597925597982,125.94466800462597,121.24129756714204,122.19791412353516,917000
2026-05-07,122.5068295340525,126.02439054042098,122.13813047351475,124.66918182373047,749700
2026-05-08,124.78875603965518,125.4165335007669,119.9658058031768,120.56369018554688,794900
2026-05-11,120.79288554794945,120.79288554794945,119.0191585502766,119.53732299804688,706100
2026-05-12,120.02559365453983,120.43415267647454,116.72725880994862,117.6340560913086,696600
2026-05-13,117.58423293808002,118.33159035082205,116.01976505817387,117.46465301513672,679500
2026-05-14,118.31166263789773,119.73662439056804,116.62761485678391,117.57426452636719,531000
2026-05-15,117.49455009110837,117.5045093824967,114.06666843041747,114.26596069335938,447000
2026-05-18,115.19268785792543,116.90662874327987,114.76420263658683,115.40194702148438,433100
2026-05-19,115.48166685737739,115.63113986049136,112.05378509001822,113.20970153808594,575800
2026-05-20,113.66807993613209,115.04321484042606,111.15696237122292,114.85388946533203,562600
2026-05-21,116.08951407739181,116.08951407739181,112.37265332877841,115.1030044555664,345600
2026-05-22,115.39198749681162,116.38846404651633,114.30582410432685,115.82047271728516,405800
2026-05-26,115.79056648170686,116.55785764558959,114.96349676302546,115.96993255615234,344500
2026-05-27,116.52796630163347,117.69384200162881,114.32575411191587,114.89374542236328,464000
2026-05-28,114.40547144179769,115.93007936247552,112.95061657623215,115.58131408691406,510100
2026-05-29,114.65458561775299,116.84683851674723,113.34920381323532,115.44180297851562,559600
2026-06-01,114.28589767180515,114.72434218302038,111.63526640610465,111.9840316772461,706800
2026-06-02,111.5555436879482,112.65167394505289,110.84804626905223,111.78473663330078,452400
2026-06-03,111.29646253608045,113.61824699938008,111.29646253608045,112.13349914550781,372600
2026-06-04,114.54497230632394,115.35212345281656,111.14699134502068,112.15343475341797,337600
2026-06-05,112.69152600064275,114.18624078068318,111.58544405772433,112.96057891845703,466300
2026-06-08,111.86445781905672,112.24311616501637,110.55906839000053,111.54558563232422,422200
2026-06-09,112.88085932662787,115.74074968498803,112.27300803930216,115.49163055419922,444400
2026-06-10,115.74074928767203,116.13934141606836,112.97054577921195,114.26596069335938,496800
2026-06-11,114.70441351982215,116.59772043978674,113.85740999319688,116.16923522949219,395200
2026-06-12,117.48458764205596,118.05257897569324,115.96993901734801,117.30522155761719,342600
2026-06-15,118.28175862932584,120.31457162088154,117.14577601676713,117.66394805908203,576100
2026-06-16,118.08246565966249,120.62348378448296,113.36912845320511,120.22489166259766,474700
2026-06-17,121.19147655168894,121.918900150595,119.03908362900873,119.56721496582031,680500
2026-06-18,120.03556323646836,122.1182031608104,118.69032142639777,119.89605712890625,750600
2026-06-22,119.13873446752551,120.58363003359555,118.46113010611298,119.57718658447266,468400
2026-06-23,119.93591657137902,122.14809569936509,118.6604278207416,120.1850357055664,514100
2026-06-24,121.55021059109053,124.60939323702425,121.34094382937874,123.84210205078125,404900
2026-06-25,125.28699706013307,127.68850153642342,124.45991971828299,125.98452758789062,363500
2026-06-26,125.49625757990486,126.67210019838983,124.3204149614199,125.53611755371094,727400
2026-06-29,125.16742108368359,125.60587320209562,123.48337326752176,124.84854888916016,446600
2026-06-30,124.16097333332938,125.86494727656601,123.5033027809896,124.75885772705078,329300
2026-07-01,124.67914609082169,126.39307933521575,123.66273577346423,124.80868530273438,405600
2026-07-02,125.82508774888942,127.77818082996899,124.96812492977865,126.5325927734375,468400
2026-07-06,125.98452783897301,126.6023460237271,123.74245564919634,125.56600952148438,431400
2026-07-07,126.18381913439254,128.26645901687073,125.71548155556971,127.2400894165039,392700
2026-07-08,126.00445175211411,126.26353777363065,122.60647080352626,123.77234649658203,537700
2026-07-09,124.02146439127118,125.03787467960888,123.34386006655016,124.0114974975586,302100
2026-07-10,124.55956853594634,126.53259544666133,123.93179104742975,125.08769989013672,385200
2026-07-13,125.64571994715708,126.72191640641843,123.96167980892794,124.449951171875,391600
2026-07-14,127.96751666781715,128.95403392567474,127.5091383673285,127.82801055908203,739900
2026-07-15,129.25298235497795,130.3092450844948,127.99741214779503,128.65509033203125,466800
2026-07-16,129.56187796196684,134.6040465870392,129.56187796196684,134.27520751953125,579300
2026-07-17,135.351401437915,136.16850424088722,130.24944675099272,132.1427459716797,530800
2026-07-20,131.9135687694055,131.9135687694055,129.2928306127641,129.4522705078125,422900
2026-07-21,130.07008242817932,130.59821378154385,127.46927803301472,128.45579528808594,328800
2026-07-22,129.35261865201468,130.02025611657908,128.02730301458666,128.71487426757812,309900
2026-07-23,128.39600579528673,129.36258923692642,127.71839385448645,128.54547119140625,382800
2026-07-24,129.13338680160044,132.26232242316664,129.13338680160044,131.8936309814453,335900
2026-07-27,132.72071171310446,133.60757521827134,132.19258036761323,132.9000701904297,411200
2026-07-28,134.9030016293852,137.54365843276426,134.3549364800917,137.32443237304688,593100
2026-07-29,135.52081464440568,136.11870667337666,134.0759266469227,135.75,580000
2026-07-30,136.39999389648438,136.39999389648438,133.11000061035156,133.8699951171875,627000
2026-07-31,137.4600067138672,139.09500122070312,132.1699981689453,133.9600067138672,620785
