Date,Open,High,Low,Close,Volume
2023-09-11,122.15021460292593,123.05439211199419,121.5923248683561,122.1694564819336,333500
2023-09-12,121.30374940797992,122.43877803875952,120.64004404886371,121.7077407836914,258000
2023-09-13,120.98632753897883,121.76545483171917,120.34186404156085,120.59195709228516,279300
2023-09-14,121.20753889977628,122.44837560717104,121.20753889977628,121.928955078125,217900
2023-09-15,121.66927042883084,122.35221036140925,120.39957794288019,121.130615234375,589200
2023-09-18,121.5442225254737,121.5442225254737,120.15910083878411,120.8516616821289,175100
2023-09-19,120.89975538209652,120.89975538209652,119.33187259288644,120.53423309326172,218600
2023-09-20,121.0440416397049,121.29413469692169,119.81282557129398,119.88015747070312,206200
2023-09-21,119.59158924649155,119.61082378593244,117.53314861088099,117.56200408935547,335700
2023-09-22,117.66780374067143,118.21607980720373,117.45618712926849,118.00446319580078,341200
2023-09-25,117.34077068831786,119.39921139699219,116.84059192021189,119.3126449584961,258800
2023-09-26,118.82208002776298,119.48578541206082,118.53351789357484,118.88941192626953,547000
2023-09-27,119.31263264936807,119.70700305954179,118.18722503326468,118.81244659423828,362400
2023-09-28,119.13949993050126,120.85166013877925,118.5623683479597,120.68814086914062,219300
2023-09-29,121.66926377216642,121.99630964992629,120.03405639924574,120.27452850341797,330900
2023-10-02,119.783963084746,120.69776148170621,119.26454246027548,120.28414916992188,244100
2023-10-03,119.29339878482428,120.53423572898005,117.82171067436374,118.1872329711914,236300
2023-10-04,118.84132265546667,119.90901943753225,117.66781755527735,119.49540710449219,208200
2023-10-05,119.23569473519102,120.16872773211533,118.11990791789228,119.03369903564453,466700
2023-10-06,118.89904015009564,121.86165854314395,118.6874235022169,121.59233093261719,491700
2023-10-09,121.02480176411956,122.3714470315645,120.89975891033677,122.10211944580078,275700
2023-10-10,122.3906804082069,123.70847018445957,121.68850597179858,121.71736145019531,322000
2023-10-11,122.66963195800781,122.83315123204267,121.82317277009818,122.66963195800781,212900
2023-10-12,122.37143953710256,122.54457973715071,120.29375713652479,120.6400375366211,189300
2023-10-13,121.19794575056598,121.84240925638196,120.62081414328858,121.1690902709961,324900
2023-10-16,122.50610354279256,122.57343543523135,121.36145403270736,121.88087463378906,275200
2023-10-17,121.2075666764976,123.44876120681954,121.2075666764976,122.62154388427734,314400
2023-10-18,122.03477780825592,122.80428408635328,121.46725986473184,121.94820404052734,287300
2023-10-19,121.2749071972549,122.61193166216363,120.61120176552791,120.93824768066406,443900
2023-10-20,121.13060925368268,121.65965082113568,117.28305556639171,117.56200408935547,446500
2023-10-23,117.08106243237853,118.46618413837787,116.59049727173269,116.86944580078125,379000
2023-10-24,117.47542865086069,119.05292505320921,117.08105821958665,118.63931274414062,312100
2023-10-25,118.15678802771491,119.459667086335,117.6356349316462,118.09888458251953,431300
2023-10-26,117.02760662773419,121.01345262337937,117.02760662773419,119.12186431884766,576000
2023-10-27,119.16046741363326,119.51754841038496,116.1590166748117,116.94074249267578,364000
2023-10-30,117.66457911449282,118.05061923829989,116.63192601709312,117.90585327148438,283100
2023-10-31,118.23397832287583,118.60071235470951,117.577712385893,118.00234985351562,422900
2023-11-01,117.847941489138,119.12186865336518,117.36539320930797,118.63932037353516,360500
2023-11-02,119.40175264455395,119.95185741255717,118.68758322153812,119.26663970947266,384300
2023-11-03,120.08695886542009,121.57320837230809,120.08695886542009,120.97484588623047,278000
2023-11-06,120.8976519637754,121.3416028944406,120.39580495443207,120.82044982910156,173500
2023-11-07,120.27033050946704,120.62741150810513,119.83603265928002,120.20277404785156,205000
2023-11-08,120.52125543592591,121.10996492498091,120.06766623895945,120.75288391113281,175800
2023-11-09,121.30299122840282,121.30299122840282,119.73953212154,120.0483627319336,118600
2023-11-10,119.90360110009986,121.399503795025,119.56581875827565,121.33194732666016,195600
2023-11-13,121.01347066235381,121.10033319132401,120.02907530034533,120.18348693847656,183100
2023-11-14,121.55390364196714,123.39724152783667,120.93624245875796,123.38758850097656,267400
2023-11-15,123.35864839876807,124.304446316357,122.90505181396026,123.25248718261719,388600
2023-11-16,123.19457641995044,124.13071389102679,122.41284320538445,123.09806823730469,217000
2023-11-17,124.07281379686883,124.57466814111162,123.15597499237893,123.46480560302734,162700
2023-11-20,123.00154326553826,123.19456697914006,122.01714809702534,122.87608337402344,213900
2023-11-21,123.0112053695368,123.82189030028484,122.76027820488832,123.44550323486328,160600
2023-11-22,123.96665977430045,124.69048225028065,122.914707976832,124.08248138427734,174800
2023-11-24,124.46851389312098,124.46851389312098,123.62888453508685,124.04386901855469,65900
2023-11-27,123.35862425420027,123.82187377610684,122.42247954760879,122.56724548339844,367500
2023-11-28,122.56727569817069,122.57692872642998,121.10997768135032,121.22579193115234,218000
2023-11-29,121.25472106402746,121.9881964499266,120.55985042087056,120.99414825439453,331800
2023-11-30,121.07135636226576,122.69271882208767,120.45369517405763,122.46109771728516,301000
2023-12-01,122.00750584736005,124.05350585054758,122.00750584736005,123.62887573242188,218300
2023-12-04,123.00155352374544,124.38164926101614,122.46110180679085,123.93769836425781,192000
2023-12-05,123.77364986692008,124.19829476456691,121.48636807246329,121.592529296875,178000
2023-12-06,121.9785500946843,122.85679147312398,121.48634880167852,121.9592514038086,179500
2023-12-07,121.83378385096688,122.67342048254547,121.59250971853534,122.07505798339844,254000
2023-12-08,121.94959163804015,123.04980103471416,121.23542230546796,122.87608337402344,265800
2023-12-11,122.81818541054639,123.22352418250709,121.93029101464404,123.11736297607422,338000
2023-12-12,123.19456695353703,123.62886478672449,122.25842219129277,123.03050231933594,210300
2023-12-13,122.74097102242494,124.48780066384826,122.74097102242494,124.10175323486328,425000
2023-12-14,124.57467068526118,125.47220345317041,122.45145375097674,122.95330810546875,412900
2023-12-15,122.72168474321455,124.09212012074336,121.57321745592215,121.58287048339844,713000
2023-12-18,122.28738762368339,122.76993591705903,121.48635568953519,122.61552429199219,240500
2023-12-19,123.25247352791789,123.65781965517932,121.63111110817805,121.82413482666016,659100
2023-12-20,121.62145477599356,122.5093491306757,121.08100310513626,121.18716430664062,346400
2023-12-21,121.83378081634912,121.83378081634912,120.49229726249135,121.51530456542969,421900
2023-12-22,121.98819919110086,122.6058603626526,121.71797334893472,121.86273193359375,312200
2023-12-26,121.73728794976175,122.4418117272893,121.20648185963121,121.4381103515625,274700
2023-12-27,121.71798784257851,122.05577018550782,120.6660287024811,120.90730285644531,283100
2023-12-28,120.61778592925386,121.40916490985678,120.0580280894582,120.8301010131836,343600
2023-12-29,120.82044581458585,120.98451046958296,119.2473336428409,119.30524444580078,313500
2024-01-02,118.33049161771078,119.76848345240212,118.02166100831862,118.591064453125,313100
2024-01-03,120.78182769015574,122.81818188143322,118.85163470226065,120.9844970703125,531700
2024-01-04,120.8107843913824,121.5249537647008,119.79743008568695,119.88429260253906,353300
2024-01-05,119.45964384127878,120.02905460628045,118.69721672111496,119.86498260498047,423000
2024-01-08,119.73953213187556,120.79149123065565,118.09887089459961,120.00975799560547,352400
2024-01-09,119.39209643843853,120.28963654792885,118.6779270344352,120.27998352050781,250300
2024-01-10,120.11592604731834,121.04241793133119,119.89395794508872,120.82044982910156,279600
2024-01-11,121.00379418819725,122.53830142244865,120.57915674328704,122.41283416748047,323100
2024-01-12,123.42619088636619,123.50340037356722,121.52494960187714,122.01715087890625,231700
2024-01-16,121.48635575334917,122.39354890156476,121.1292747284493,122.38389587402344,257500
2024-01-17,121.54424409953643,122.82781672748487,121.49598633384835,122.26806640625,336900
2024-01-18,122.87610796985773,125.47221301031782,121.9013582695851,124.63258361816406,444200
2024-01-19,125.18266753995223,126.87158633461526,124.05349172960442,126.234619140625,418000
2024-01-22,126.33112908123387,127.20937045222468,126.00299979741455,126.61101531982422,266200
2024-01-23,127.1997241248171,127.24798189599859,125.78103106406539,127.22867584228516,217800
2024-01-24,127.50855023197329,127.67261487673112,125.98369593067731,126.21532440185547,294400
2024-01-25,127.4216965566274,127.75948624024079,125.82929313663216,126.6689224243164,332300
2024-01-26,127.0838891387504,127.96213041262492,126.81366332005095,127.10319519042969,219900
2024-01-29,126.47588991643843,127.96213193699042,125.93543827260136,127.63400268554688,187800
2024-01-30,127.42168029315333,128.4446801513025,127.0356476121848,127.63400268554688,228400
2024-01-31,128.14710349111215,128.53435148166193,125.03951776645216,125.7365493774414,537500
2024-02-01,126.29805168978267,126.9273093818835,125.47516261057311,126.3367691040039,298800
2024-02-02,125.81399083086278,126.54006414764015,124.58450254495992,125.94952392578125,344800
2024-02-05,125.01048880090507,127.25646828783212,123.96494127747282,126.48198699951172,319500
2024-02-06,126.31741327577761,127.20806159525097,125.17506481341027,126.94668579101562,369700
2024-02-07,127.21774119888832,128.19551470320488,125.24281332521821,127.59529876708984,393000
2024-02-08,127.4403846693048,130.53829445292226,127.34356898744214,127.90506744384766,620700
2024-02-09,127.89543870730267,134.76894102535888,127.3145739470146,134.52691650390625,650900
2024-02-12,134.72051017566284,135.98871608812559,133.12313974347538,133.21995544433594,491300
2024-02-13,132.32930021222504,132.9488822581375,130.67384635486445,131.59353637695312,275900
2024-02-14,131.91303358615116,133.07476305152232,130.85781026804267,132.79400634765625,335000
2024-02-15,132.7939713432345,133.4135533345092,130.27692596643098,130.73191833496094,471400
2024-02-16,131.05138100848956,133.59748268821022,130.7319069946388,133.11343383789062,453900
2024-02-20,132.7649142640081,135.66920728256332,132.58097334264656,135.2335662841797,373000
2024-02-21,134.6430432067918,135.6401827546635,134.5559179504535,135.53369140625,276300
2024-02-22,135.9887045298492,137.87649236016304,135.60147130332354,136.95680236816406,295700
2024-02-23,137.44086687732337,137.5183164858138,136.1145774154304,136.85032653808594,190300
2024-02-26,136.98584148427423,137.5279738997732,136.3081759649005,137.39244079589844,199200
2024-02-27,137.39245476737844,137.64415490816972,135.34009190799827,135.8338165283203,244600
2024-02-28,135.194869665944,136.7341565973834,134.88508601058652,135.93063354492188,189600
2024-02-29,136.1436245676808,137.11172255417472,135.36914322408506,135.9790496826172,250600
2024-03-01,135.41752898322991,136.298486780481,135.10773058753682,135.81443786621094,151400
2024-03-04,136.20167928350625,137.58605202090553,136.07582184483363,137.43116760253906,260300
2024-03-05,137.73128791076408,138.64130227082694,137.21819722213309,137.9733123779297,190200
2024-03-06,138.37021994084103,139.05757592063267,137.93457885855102,138.50576782226562,184000
2024-03-07,139.89013059583016,140.5097125902881,139.25118250942043,140.03533935546875,250100
2024-03-08,140.09345993941886,140.44197579004816,138.40896419937695,138.52513122558594,185200
2024-03-11,138.23467236717613,138.80586127112414,137.4505155467045,138.186279296875,226700
2024-03-12,138.24437886769354,138.29278671562085,136.9664825880185,137.8668212890625,242200
2024-03-13,138.43800441506068,138.43800441506068,136.43403460324666,136.65670776367188,336800
2024-03-14,136.85031074719467,137.10201086674357,135.88221291077477,136.43402099609375,235200
2024-03-15,135.57240492142637,137.86680667638342,135.28198740864667,136.5017852783203,599500
2024-03-18,136.4340127765464,136.79221899940188,134.49781722035388,134.81729125976562,299700
2024-03-19,134.44943456936542,135.84349784138894,134.44943456936542,135.059326171875,253000
2024-03-20,135.1754889932736,135.6014543524043,134.7011157938783,135.504638671875,220000
2024-03-21,135.83380611845956,137.08266060945118,134.85603261400937,136.6373291015625,255800
2024-03-22,137.47958214730536,137.9055476013454,136.55021640394727,137.07298278808594,276000
2024-03-25,136.69541504364804,139.4544998568,136.66637328957285,138.39927673339844,316300
2024-03-26,138.27341558365592,139.70619624368913,138.0701085385698,138.63160705566406,314200
2024-03-27,139.08660656444317,140.5193871456138,139.08660656444317,140.04502868652344,218200
2024-03-28,140.1999450522203,140.71303575776633,139.06725750918295,139.2996063232422,247800
2024-04-01,139.20278768938965,139.20278768938965,137.58606600215256,137.75064086914062,204400
2024-04-02,137.3149905478121,137.3149905478121,135.91125167032422,136.1436004638672,202600
2024-04-03,136.18235879162268,136.68577394287902,135.40787735246013,136.3856658935547,258700
2024-04-04,137.3053243590496,138.1959726377349,136.47275958975655,137.22787475585938,403600
2024-04-05,136.8696707293308,138.20563563898364,136.45338099681578,137.20849609375,288300
2024-04-08,137.15041706598697,137.83777302127123,135.91125303201014,136.0274200439453,312500
2024-04-09,135.9403078901939,136.59862215595857,134.91412646050384,135.8338165283203,242600
2024-04-10,134.54623575653343,135.74668241469655,134.03314507512525,134.9528350830078,200700
2024-04-11,134.8173099688125,135.57242515875745,134.03315302325444,134.69146728515625,265300
2024-04-12,133.76206933999157,134.5171844314302,131.62258150491544,132.82301330566406,299200
2024-04-15,134.18803080372464,135.349745158721,133.43291573437705,133.79110717773438,319600
2024-04-16,133.39420463004214,134.94316719612974,132.97792961895718,134.16868591308594,281700
2024-04-17,134.44942351929788,135.03027332023512,133.93633288107014,133.98472595214844,565400
2024-04-18,133.97508736900187,134.99159326695258,133.81051247459138,134.672119140625,246600
2024-04-19,134.62369389699214,135.4562586960129,134.34295200090463,134.89476013183594,276600
2024-04-22,135.09803598219477,136.64698342744765,134.80760371996035,135.84347534179688,298800
2024-04-23,135.31102694214403,136.656682226633,135.069002504128,135.67889404296875,417200
2024-04-24,135.88283187941434,136.8052204354619,135.58184333310518,135.9410858154297,559200
2024-04-25,135.7759941871754,137.14502060339382,134.88273282197122,136.10610961914062,694400
2024-04-26,137.87324676430742,144.194050138077,137.7761470024205,139.1645965576172,489500
2024-04-29,140.6889316606444,143.718268755578,140.17433562764535,142.1259307861328,676700
2024-04-30,141.50454336149315,141.85408171786466,139.8733594266455,140.18406677246094,585100
2024-05-01,140.77634869572992,142.9318328954004,140.37826043918207,141.15501403808594,359600
2024-05-02,141.52393711432322,142.46574828977003,141.0675950059999,141.67929077148438,356500
2024-05-03,142.83471091986533,142.85413383103565,140.6306771852546,142.54342651367188,303300
2024-05-06,143.46583362092616,144.74747925029178,142.88327954740367,144.70863342285156,260200
2024-05-07,144.00957355262796,146.00970404941293,144.00957355262796,145.36888122558594,392900
2024-05-08,145.36889477978409,146.48546798558442,145.13586423611673,146.4077911376953,223500
2024-05-09,146.6116974972741,147.32047837661355,144.31057824435283,144.74749755859375,299100
2024-05-10,144.62127547863358,144.66982536296524,143.78626784030067,144.17465209960938,186300
2024-05-13,144.21346995257653,145.13585840929454,142.59200470826642,143.57264709472656,167500
2024-05-14,143.99014505242278,143.99984910137368,143.18426452924012,143.6017608642578,137600
2024-05-15,143.66003210063693,144.02897856662815,142.5046131956969,142.99978637695312,211100
2024-05-16,143.08715481169418,143.60175086174465,142.17447055225648,143.25221252441406,235500
2024-05-17,143.5532250739488,143.86391760755848,142.85414835414977,143.37844848632812,169500
2024-05-20,143.30077614301211,144.09695263816212,142.7667571298435,143.86392211914062,163400
2024-05-21,143.64060931065208,144.35909414501361,142.81530585917272,144.27171325683594,280400
2024-05-22,143.7668346921676,144.50474243328088,143.18426581237048,144.4658966064453,283300
2024-05-23,144.3396862943476,144.62125187296155,143.27164827475897,143.427001953125,171700
2024-05-24,144.16492024192416,144.50475458627656,143.0774740445457,143.7862548828125,162300
2024-05-28,143.32992330845792,143.48527700970283,141.58224602315815,142.44638061523438,318400
2024-05-29,141.41717982275944,142.4366681619791,140.31031057840968,140.63072204589844,229700
2024-05-30,140.91230183602912,142.70852907736696,140.78607509675612,141.8929443359375,328100
2024-05-31,141.8443657942061,143.5338036875814,141.6793080690731,143.3978729248047,358900
2024-06-03,144.18433298516325,144.18433298516325,142.0288488421779,143.85421752929688,266200
2024-06-04,143.3590163849127,144.07751597180606,142.4366280767618,143.88333129882812,287900
2024-06-05,143.42700061426063,143.89304682966602,142.80560072193944,143.62118530273438,229200
2024-06-06,143.7085510142787,143.7085510142787,141.17440183665215,141.7181396484375,197600
2024-06-07,141.53367596430135,142.07739902580767,141.22296860610217,141.320068359375,179100
2024-06-10,140.62099421122554,141.57250958640344,139.80540960393014,141.35890197753906,125800
2024-06-11,140.69864968580106,141.50453012134668,140.15492669684025,141.27149963378906,147700
2024-06-12,141.9900224631697,142.05798044025738,139.88308812796836,141.59193420410156,221300
2024-06-13,141.6501881317032,142.27158805169188,140.805476550794,141.59193420410156,232400
2024-06-14,140.87341987566188,141.15500025023965,139.5043934580447,140.54330444335938,141500
2024-06-17,140.6598313540665,142.41722736375868,140.3685617068692,142.07740783691406,303800
2024-06-18,142.22303735719075,143.39787921333664,142.2133333077604,142.42694091796875,219900
2024-06-20,142.39781323867697,143.24252481049206,141.43657899757036,141.572509765625,199900
2024-06-21,141.63074532231857,142.86384093959524,141.08702232062387,142.582275390625,444100
2024-06-24,142.94153910100914,143.92218146002028,142.4075200677485,142.45606994628906,182900
2024-06-25,142.52400422223266,142.53372308553023,140.30056238212384,140.6501007080078,194500
2024-06-26,140.05785425717647,140.5821544372045,138.80535032884424,139.53355407714844,192400
2024-06-27,139.6888885498047,139.69860741462887,138.135396158235,139.6888885498047,377300
2024-06-28,139.60150714084187,140.12582211775148,136.01874245488284,136.7178192138672,435100
2024-07-01,137.2712545772139,137.36833951304502,134.36814387510577,134.51377868652344,306400
2024-07-02,134.4555328904598,136.41683242305885,133.75645612270853,136.31973266601562,259400
2024-07-03,136.7858055226286,137.2906828198518,136.48481699130676,137.1159210205078,143300
2024-07-05,136.89263254623881,137.3295519340151,135.66924048204928,136.80523681640625,207000
2024-07-08,137.53342224222834,138.3587258312191,137.38778740433332,137.39749145507812,249300
2024-07-09,136.766360792669,137.16444902591755,135.68861875591176,135.97018432617188,238400
2024-07-10,136.65956823532298,137.51399869592782,136.48480644947725,137.18386840820312,142000
2024-07-11,137.09648258623827,139.13545890652216,136.65956332198957,137.9606170654297,244500
2024-07-12,139.2422698494713,141.2618233593471,139.2422698494713,140.38796997070312,263900
2024-07-15,140.55302268784044,141.45600300897715,138.98010738595784,139.2616729736328,319900
2024-07-16,139.66951340058085,141.07737130534576,139.66951340058085,140.35887145996094,178800
2024-07-17,140.14520872276645,141.5336579783451,140.14520872276645,140.6501007080078,242300
2024-07-18,140.4074042597719,142.97068107315562,140.39770020918226,142.02886962890625,434200
2024-07-19,142.3298497313873,142.3298497313873,140.45594581987174,141.69874572753906,251200
2024-07-22,141.74729152284237,143.2716569904321,141.0287918281976,142.91241455078125,235700
2024-07-23,143.572641002004,144.19404091845544,141.43657971516106,141.7958221435547,234500
2024-07-24,141.82495301591825,142.3686760490821,139.71800403939616,139.95103454589844,250600
2024-07-25,139.1134168154453,140.30167233708127,137.54531009340042,137.80828857421875,558100
2024-07-26,139.40563543189464,147.3532937123029,138.64593291142725,142.84378051757812,562800
2024-07-29,142.76581570815785,144.4897623626003,141.39250201967428,143.95407104492188,390900
2024-07-30,143.5450338076538,144.05149220142636,141.62629393482098,141.9574432373047,411000
2024-07-31,142.68793548619507,144.97679227316166,141.62630185383244,143.1554412841797,280600
2024-08-01,143.05804117385702,145.64881403519908,141.64575972559882,143.20413208007812,335300
2024-08-02,142.7658734897668,143.17494297199187,140.00951055934578,141.89903259277344,213500
2024-08-05,139.69780574748174,139.69780574748174,135.85059153457982,137.0193634033203,448500
2024-08-06,137.65245225788104,142.28858689391723,137.4381756914255,141.1587677001953,476000
2024-08-07,142.21066611828329,143.42813984840885,139.73676603783363,139.86338806152344,353600
2024-08-08,140.70101663202263,142.356778003838,140.70101663202263,141.7723846435547,268600
2024-08-09,141.62630065454624,141.62630065454624,139.73677887394297,140.20428466796875,263200
2024-08-12,140.22379126722265,140.42831858343513,139.05501916077762,139.5614776611328,221100
2024-08-13,139.7757349256636,141.51916583268488,139.37641479063032,140.6133575439453,212000
2024-08-14,140.37960449405662,141.04190311093822,139.75625849980418,140.15557861328125,115700
2024-08-15,141.22695417806543,143.5060614579835,141.22695417806543,143.1846466064453,277500
2024-08-16,142.30807861002003,143.01907915033655,141.8210890883735,142.90220642089844,250600
2024-08-19,142.51262572122243,143.88592492526362,142.12302517326572,143.1457061767578,191200
2024-08-20,143.15544136166255,144.45083532458932,143.15544136166255,144.25604248046875,387200
2024-08-21,144.31447092085256,145.6780504782827,143.6229541329459,145.4442901611328,267300
2024-08-22,145.67805355296156,146.48644308563473,144.8014634914536,145.11314392089844,200400
2024-08-23,145.7657034384913,146.6130604286141,145.5514268655365,146.52540588378906,221400
2024-08-26,146.75912859865647,148.6973518949086,146.23318654945226,146.25267028808594,235500
2024-08-27,146.10658758715397,147.59677430031587,145.94101293699603,147.265625,208300
2024-08-28,147.00265865265132,148.01560524076524,147.00265865265132,147.59678649902344,249000
2024-08-29,148.58049863148904,148.9311316640923,147.27537034525355,148.31752014160156,187100
2024-08-30,148.23959762370004,149.4473369078232,147.69417177336692,149.20384216308594,178500
2024-09-03,148.1519778332044,148.4149563804925,145.83390256381702,146.13583374023438,362400
2024-09-04,145.70725993860023,146.97342071092024,145.70725993860023,146.80784606933594,175800
2024-09-05,147.1487592794206,147.81105791158635,146.04815817755215,146.79812622070312,200600
2024-09-06,146.4669892113799,149.1356825686532,146.4669892113799,148.41494750976562,319100
2024-09-09,148.59998302653705,149.0772232245831,147.49938200179562,147.9571533203125,241500
2024-09-10,147.91819898327566,148.81425795867298,147.49939511007815,147.56756591796875,158100
2024-09-11,146.86627610856456,146.9539455070627,144.762492917651,146.91497802734375,178000
2024-09-12,146.9637098345748,148.05456170073086,146.06765082141203,148.00587463378906,200400
2024-09-13,148.22986559888577,149.02852064652984,147.9474033678148,148.31752014160156,138600
2024-09-16,149.0577507849576,149.18437282019818,148.11300475699895,149.00906372070312,182900
2024-09-17,149.9927649627968,151.5219191158579,147.9181849513857,149.04800415039062,259900
2024-09-18,149.75899280719582,151.44398703270204,148.73632683455978,149.0869598388672,214200
2024-09-19,150.98623601631084,154.677610065008,150.98623601631084,152.8173065185547,412400
2024-09-20,152.24267408275566,152.24267408275566,150.46029050724783,151.85308837890625,663300
2024-09-23,152.10629117339244,152.8270409482074,150.7135084054571,151.90176391601562,315800
2024-09-24,152.11603410552289,152.99262412844,151.96994319924016,152.55433654785156,246200
2024-09-25,153.2068961113986,153.7620564003903,151.8140984456662,153.05105590820312,284100
2024-09-26,153.8302663844023,154.92111825576467,153.59650604264948,154.25881958007812,371600
2024-09-27,154.55101656038337,157.34634704702088,154.14194706857526,155.7295379638672,354300
2024-09-30,155.14512315625234,156.2457242868971,154.7944900883672,156.02171325683594,289800
2024-10-01,156.36259442762125,156.36259442762125,154.9113751149142,155.80743408203125,192200
2024-10-02,155.70028846125726,155.94378321896212,153.84973424739667,154.61917114257812,186900
2024-10-03,153.8789526282023,156.2846820263738,152.564074990201,154.80422973632812,367000
2024-10-04,155.7782195226645,157.2684063556804,155.18409167761138,156.4015655517578,350500
2024-10-07,155.24251230852914,155.486007058675,153.89841653196711,154.56072998046875,223300
2024-10-08,154.16140851662,154.88215839036292,153.0121203289736,154.541259765625,205900
2024-10-09,154.2296012026817,155.88536275157466,154.00557530229472,155.54446411132812,152600
2024-10-10,153.93741148142823,155.23280556674862,153.93741148142823,155.07696533203125,168500
2024-10-11,156.75220088173344,157.70669625153667,156.1775567716702,157.34632873535156,194400
2024-10-14,160.6968330891888,163.3947447648591,159.20664610647776,162.83958435058594,469700
2024-10-15,162.96617430440529,165.2452816100452,162.15776994657773,164.290771484375,397300
2024-10-16,164.31023937535176,164.79722883103554,161.60257919068917,161.71945190429688,330000
2024-10-17,162.63500734074424,163.94015048027507,162.18698532860228,163.52133178710938,238200
2024-10-18,164.69985199950776,164.69985199950776,163.41419260808226,164.24208068847656,171500
2024-10-21,164.0862524476999,164.1057361900711,161.97271968352462,162.00193786621094,217900
2024-10-22,161.40779833915946,162.04087873375656,160.52147389733162,161.49545288085938,228500
2024-10-23,162.17724687078498,163.6089972685699,161.83636311905678,163.28758239746094,318100
2024-10-24,164.38137299354142,164.39113363211433,162.2621371858914,162.6527862548828,547300
2024-10-25,164.9673259462908,165.8755720020447,160.75818090850115,164.9575653076172,518900
2024-10-28,165.92441114185215,167.3990873642211,164.8110872205768,165.1431427001953,350000
2024-10-29,165.07475181943673,165.52399452591067,163.7172779631245,164.75247192382812,338100
2024-10-30,164.4107021299758,166.2174041358462,164.18607328299754,165.0747833251953,290300
2024-10-31,165.1333689439496,166.29552588082868,163.9321545452615,163.98098754882812,329900
2024-11-01,164.1665632191192,166.98893829513068,163.69778421214892,165.44590759277344,316300
2024-11-04,165.66072177477935,166.5787284860389,164.24463934900223,164.32276916503906,191800
2024-11-05,163.81495853194275,166.37364684373878,163.81495853194275,166.32481384277344,206200
2024-11-06,171.05156441416634,171.05156441416634,168.1120023975292,169.10813903808594,264100
2024-11-07,170.12378096512896,171.35430696476374,169.47922114643825,170.62185668945312,412300
2024-11-08,170.61209897781401,173.6786238548333,170.40702122427004,171.6472930908203,309200
2024-11-11,172.19417237187216,173.86415054303177,171.7839871315732,172.02813720703125,189100
2024-11-12,172.51645146428592,173.09265701480297,170.85623379576612,171.58868408203125,179800
2024-11-13,171.3933563232422,172.26253001280048,170.95388915917127,171.3933563232422,168400
2024-11-14,171.05155682058597,171.67658049046,169.8405818424337,170.02613830566406,198200
2024-11-15,168.92257425336157,169.69408202115162,162.28168847937133,162.59420776367188,620500
2024-11-18,162.4965371683572,163.89308346527008,160.4847427631967,162.78952026367188,384400
2024-11-19,162.52583437609178,163.74658485803732,162.31098109913023,162.99459838867188,287600
2024-11-20,163.0922846123704,164.98689197957114,161.77386796768175,164.78179931640625,221800
2024-11-21,164.74271987680694,166.24667789967594,163.81495249958823,165.90487670898438,205100
2024-11-22,166.1978542572136,168.04364337816776,166.1978542572136,167.49673461914062,241600
2024-11-25,168.02407961131303,169.94798333738404,167.72133591157126,168.4635467529297,270100
2024-11-26,168.81514749207574,168.81514749207574,167.1549297751935,168.0143280029297,140300
2024-11-27,168.6296004490124,169.81129356804752,167.50651587532045,167.7115936279297,167200
2024-11-29,168.5514742252474,169.43042360328997,168.06317398247072,168.91282653808594,117300
2024-12-02,168.93233680546206,169.05929962886407,166.84241249869427,168.7174835205078,170900
2024-12-03,169.39133917889114,169.39133917889114,167.0865616010066,168.36590576171875,160100
2024-12-04,167.86783536473908,168.84443572520686,167.02795845866723,168.55145263671875,173400
2024-12-05,167.98502374389864,168.40496965056505,166.5396593733903,167.09632873535156,245000
2024-12-06,167.58463897320985,168.61005749857284,166.85218865409922,167.14515686035156,209200
2024-12-09,167.54556559711838,169.4108759749143,166.24668525088177,166.7935791015625,301700
2024-12-10,166.72521015388972,167.3599944100707,164.25441250187913,166.9107666015625,287000
2024-12-11,167.85806889036164,170.02612280736926,167.73110607935809,168.2779998779297,418600
2024-12-12,167.65298456324717,168.5612306607672,166.78381082569527,167.62368774414062,178300
2024-12-13,166.91076951474722,166.99865996989303,165.8462787089003,166.21737670898438,153200
2024-12-16,166.158796503823,166.9303042864774,163.66846242787886,163.70753479003906,236100
2024-12-17,162.9945718969297,163.00434743630956,159.02957736028515,159.2737274169922,511900
2024-12-18,159.85973142770067,160.5726455898807,154.214981970008,154.50796508789062,468600
2024-12-19,154.80093483209816,157.78934478191135,154.5274878931726,155.1525115966797,404700
2024-12-20,155.00601023435632,156.0412042310304,153.7852597851201,154.4786376953125,730200
2024-12-23,153.49228296319632,155.1817974814259,153.28720522432621,154.81069946289062,194900
2024-12-24,155.06460748481138,155.6896311333145,154.2247305600973,155.62127685546875,100500
2024-12-26,154.71301920600163,155.8947121369805,154.71301920600163,155.13296508789062,164500
2024-12-27,154.12706058841098,155.8458716858728,153.9219679765111,154.44932556152344,145000
2024-12-30,153.32626257404377,153.80480213396478,151.3730617769222,153.0625762939453,221700
2024-12-31,153.59970058644706,154.54700411025723,152.52543424962974,153.42391967773438,317100
2025-01-02,153.96102932277924,154.41027201167452,149.85931109671645,150.55270385742188,239400
2025-01-03,150.43556088178158,152.07625775881579,149.2929398843306,151.8614044189453,250700
2025-01-06,150.39646609155173,151.02148977014832,147.89637137716537,149.34173583984375,369000
2025-01-07,152.27152292122494,152.408246372483,149.02921754778856,149.83978271484375,361200
2025-01-08,149.31245742221395,150.65039540651844,148.53117400223823,150.54296875,228600
2025-01-10,149.14643028639964,150.68946087220502,149.00970681179618,149.85934448242188,350800
2025-01-13,149.3514738966303,151.08006056736804,149.3514738966303,150.2890167236328,349300
2025-01-14,151.18751987696325,151.8125435961652,149.88863943358058,150.99220275878906,196900
2025-01-15,152.4668462198905,153.24812950251066,150.5624784634495,151.91995239257812,206100
2025-01-16,152.24223989964935,153.49228725350105,151.67580986403843,152.7500762939453,346300
2025-01-17,153.29695885699005,154.2540230320317,152.03713605455528,152.4375457763672,231900
2025-01-21,153.0528143054371,156.50997312910235,153.0528143054371,156.0900421142578,270900
2025-01-22,155.61149546068765,156.98850552412839,154.63489511528093,155.3478240966797,280000
2025-01-23,154.7521036088612,156.070505187951,154.03917459835165,155.88494873046875,149800
2025-01-24,155.9142573921176,156.7150769217103,153.54112542846482,154.59585571289062,329600
2025-01-27,154.54701307242723,155.201333551255,152.98444647403235,154.75210571289062,317000
2025-01-28,153.88291140841034,156.59785896178445,153.88291140841034,154.7130126953125,204300
2025-01-29,155.06462155953,155.10369392333624,152.95516096621085,153.43370056152344,265800
2025-01-30,154.12706586283983,154.96692781170574,152.9160761312112,154.4298095703125,274200
2025-01-31,154.205198107046,155.66033807623802,153.0918742405619,153.47274780273438,834100
2025-02-03,150.96288932286944,153.0821103704106,150.53318276913035,152.3301239013672,364600
2025-02-04,152.43756037769683,154.75211357303183,152.43756037769683,154.0098876953125,302400
2025-02-05,155.01866189479728,156.3702319730873,154.52896432375118,155.05784606933594,262600
2025-02-06,156.54651300778121,156.54651300778121,152.16861560867,153.2263641357422,446600
2025-02-07,154.37224962460155,154.64647905482116,139.11327229734582,140.2297821044922,1221500
2025-02-10,141.28754664505917,141.6205523719065,137.99677816426612,140.32774353027344,621900
2025-02-11,139.33854663703144,140.1220657147679,137.3699528993658,139.35812377929688,377300
2025-02-12,138.06533442672804,140.53341437012955,137.04675510972507,138.78028869628906,423500
2025-02-13,139.80865498326042,140.8174307728779,138.54524183950096,139.8282470703125,665900
2025-02-14,140.72929960574803,142.31591505799216,139.7792850599418,141.80662536621094,512800
2025-02-18,141.806629148029,144.25511722944964,140.93496798881864,143.87315368652344,489600
2025-02-19,143.12880426353559,144.45099367199094,142.6097260381441,144.01025390625,331000
2025-02-20,143.94170202111488,144.3824268363581,142.91333415595835,143.6576690673828,283100
2025-02-21,144.00046152927248,144.35304436591701,142.20816668836144,143.32467651367188,451900
2025-02-24,143.16798872554835,144.2551180375646,141.38549716336897,142.6097412109375,353300
2025-02-25,142.8741632870377,145.27367831527678,142.7174564829414,144.6664581298828,336700
2025-02-26,143.62828832707837,146.10615678438293,143.59890766903789,143.61849975585938,735600
2025-02-27,143.21694635144803,144.14736874046284,142.3648773665291,142.6293182373047,262800
2025-02-28,143.14838730085012,143.9221028321513,141.64991403633834,143.72622680664062,348700
2025-03-03,143.9417092483485,145.7731734330009,142.6880846270143,143.5695343017578,394100
2025-03-04,142.54115535917794,144.90150112160728,142.14940329945776,142.93292236328125,490100
2025-03-05,143.04065503791688,145.78296426258473,143.04065503791688,145.38140869140625,445100
2025-03-06,144.51952840338762,148.37834721716624,144.02983088781943,148.03555297851562,471700
2025-03-07,147.40874233764586,150.20002418408012,146.10614513893535,149.63197326660156,480200
2025-03-10,148.93662196596816,150.82684736023063,147.14432711634848,147.467529296875,391100
2025-03-11,147.24225796213827,147.45772608292995,144.23552273099082,144.84274291992188,304000
2025-03-12,145.18554224213253,145.18554224213253,142.56075547219578,143.0210723876953,299700
2025-03-13,143.39324790721705,144.16696350239528,140.79784178568258,141.77723693847656,238400
2025-03-14,142.23754924682325,143.86334873443155,141.5617642221919,143.63809204101562,223600
2025-03-17,143.49116498279625,144.9504690034165,142.85456417100727,144.79376220703125,225200
2025-03-18,144.35305965504074,144.49017438690367,142.77623276642447,143.2855224609375,219900
2025-03-19,143.32466483055046,144.42159742424096,142.47259593827573,143.95147705078125,279600
2025-03-20,143.1190209381293,144.38243413158088,140.76846356409283,142.2081756591797,332800
2025-03-21,141.0328722472122,142.4627954441351,139.42666513328305,141.8359832763672,601900
2025-03-24,142.74685366750688,145.12677688467917,141.9241652673277,144.94070434570312,463800
2025-03-25,145.43038233248038,146.15512513486658,142.9231183481365,144.1767578125,325200
2025-03-26,144.02003557814166,145.63603132614415,143.28548933916207,145.49891662597656,630400
2025-03-27,145.2246994062801,146.80152606265366,144.0004555719647,146.2726593017578,312700
2025-03-28,146.21391558563735,146.9092928138193,142.75665142363636,143.9025421142578,239800
2025-03-31,143.5597480313838,146.01802456611082,143.08964252694352,145.32266235351562,372500
2025-04-01,145.8123486528671,146.93864705079392,144.34325598893645,146.02781677246094,240000
2025-04-02,144.95049129591143,148.01600308998087,144.95049129591143,147.42835998535156,247600
2025-04-03,143.73601082079833,146.95822887417515,143.4422042640377,145.60665893554688,352900
2025-04-04,142.22778665727026,144.91133515916854,137.15451123234206,137.2916259765625,531600
2025-04-07,133.53071403995318,139.19161608543078,128.1538449204054,131.8755340576172,629900
2025-04-08,134.5493112573588,136.43953673434598,128.57499483049722,130.9059600830078,473800
2025-04-09,130.43584131939255,141.44424838924863,128.6141806532637,140.78805541992188,491800
2025-04-10,137.11529958166244,140.41585593939033,134.7353769122268,137.85963439941406,309000
2025-04-11,137.967394489513,141.72828334567205,136.8606880961678,141.14064025878906,203000
2025-04-14,142.79581425798335,143.38344237476502,140.82722046414764,142.7860107421875,249300
2025-04-15,143.08963340422312,143.5205547049289,140.80764097500608,140.97413635253906,250700
2025-04-16,141.09166473999363,142.81540979066028,139.63237551205373,142.01229858398438,307700
2025-04-17,142.40405194984112,142.75663480933545,137.8107011490633,140.8664093017578,390600
2025-04-21,140.347331860725,141.08187824351555,138.19266546008294,139.6421661376953,291600
2025-04-22,141.52259151328374,143.79479531157602,140.631338388382,143.0112762451172,217800
2025-04-23,144.823151790697,146.24328667195422,144.1865509396658,144.99945068359375,537000
2025-04-24,144.88192409202932,148.86806971088194,142.4628317080614,148.33920288085938,424500
2025-04-25,147.74174236983214,149.8474356512307,144.52932795142166,145.98861694335938,220500
2025-04-28,146.71339348881767,147.91804531450325,145.22470870652703,146.61544799804688,235200
2025-04-29,146.67421273095528,148.84847116613122,145.939666366217,147.20309448242188,359900
2025-04-30,145.99841784242776,146.8994594368768,144.17674256936857,146.8602752685547,556200
2025-05-01,145.82883124627438,147.8721067076984,144.36514960993844,145.66183471679688,445300
2025-05-02,150.2886872456017,150.29850528114721,145.18049076089244,149.316162109375,431600
2025-05-05,148.7562234700928,150.51462619082648,148.21594670199013,148.8053436279297,267600
2025-05-06,147.59705042912566,149.355437978684,146.78170385931236,148.25521850585938,312000
2025-05-07,149.19827245283236,150.44583737765655,147.9605105733144,148.7169189453125,318400
2025-05-08,149.1098443499113,151.84077180787722,148.5695676661293,150.65213012695312,302500
2025-05-09,151.1924328459138,151.5755460622504,150.23955882257493,150.61285400390625,231600
2025-05-12,153.03920863277799,153.82508602684115,150.98611537017845,152.77398681640625,352500
2025-05-13,153.55003919391905,153.55003919391905,150.49495171985274,150.92718505859375,339400
2025-05-14,150.90754450151144,150.90754450151144,148.3043412429943,149.7876739501953,350100
2025-05-15,149.65999740079963,152.73472152439172,149.65999740079963,152.21408081054688,278100
2025-05-16,152.4399964689241,154.3752135929202,151.86041763202704,154.23768615722656,278600
2025-05-19,153.59918681809296,155.54422220096674,153.55006665911085,155.288818359375,185400
2025-05-20,157.43028415795405,157.43028415795405,155.1217870960868,155.7308349609375,388100
2025-05-21,154.09032526701444,154.86636965019244,153.07851316508325,153.68756103515625,319800
2025-05-22,153.5991755437167,154.4832783830283,152.81329802579143,153.88404846191406,278900
2025-05-23,152.38104076215055,153.42232193974363,151.5362251859094,153.1865692138672,260500
2025-05-27,154.25734853178614,155.64245601461047,153.92335544765425,155.36740112304688,352800
2025-05-28,155.36739421063615,156.03538034918074,154.4832763933447,154.6208038330078,364400
2025-05-29,155.04320652313712,155.8683710937722,154.05104543149486,155.5343780517578,232100
2025-05-30,155.44597065814978,155.9764293133438,153.77597547059216,155.60313415527344,335100
2025-06-02,154.75833131600515,156.2613301068848,152.51859016122646,154.13946533203125,349600
2025-06-03,153.4223415376803,154.66010346409962,153.24552697068694,153.5009307861328,397800
2025-06-04,153.72689030243944,153.75635939881812,147.63635056847724,147.75424194335938,831900
2025-06-05,148.90356481639972,150.6324832288513,146.41823804065308,149.79750061035156,482400
2025-06-06,151.6443086942385,151.75236704132885,149.52245886221365,150.60302734375,264700
2025-06-09,150.0136191980335,150.4753066580511,148.6874500367206,148.9232177734375,388400
2025-06-10,149.47332984142486,150.2984944487939,148.19628081228734,149.8367919921875,323500
2025-06-11,150.29851181607012,150.87809071516745,148.9232373115395,149.23757934570312,380800
2025-06-12,148.7365731786107,151.88988615274167,148.7365731786107,151.62466430664062,337200
2025-06-13,150.2985051515068,151.00579343372206,148.06858195648448,148.49099731445312,361200
2025-06-16,148.5695758002576,150.20025395390124,148.4516844355203,149.01162719726562,346200
2025-06-17,147.9998142251002,148.58921108822153,146.49683048956007,146.81117248535156,379700
2025-06-18,146.4869866848808,148.0685595503163,146.4869866848808,147.05674743652344,383200
2025-06-20,147.63634617447357,148.10788168123327,146.35931206442524,147.64617919921875,570500
2025-06-23,146.8505054983182,151.22193019095576,146.8505054983182,151.07456970214844,356500
2025-06-24,151.84078941040858,151.84078941040858,150.4753180284472,151.15313720703125,246600
2025-06-25,151.14331042765082,151.80147850793904,150.0725600428252,151.21206665039062,264700
2025-06-26,151.80147000378724,152.83293320202972,150.41636270870066,151.75234985351562,658200
2025-06-27,151.92918872409527,153.3535832332286,151.50677339306424,153.06871032714844,643100
2025-06-30,153.27499173184543,153.73669418509692,151.8800663373244,153.6679229736328,315500
2025-07-01,153.66793021902077,156.9784367941011,153.20624273336693,156.20237731933594,338300
2025-07-02,156.21219361043833,157.69552619700025,155.8487164947486,157.48924255371094,293500
2025-07-03,157.76431481113727,158.51089020387988,156.99808835850575,158.196533203125,235100
2025-07-07,158.10811741535406,159.5030428051159,157.7151861749073,158.11795043945312,313900
2025-07-08,158.05899691367227,159.70934109650693,157.02754866243734,157.22401428222656,342700
2025-07-09,157.10613360189868,157.18472285303153,155.30845881868973,156.90966796875,252800
2025-07-10,156.37919368056006,157.52853325880866,155.5343780517578,155.5343780517578,361600
2025-07-11,155.76033435806713,155.76033435806713,153.86441918956936,155.1119842529297,292000
2025-07-14,154.3654022940558,156.13362296539574,153.92335087356255,154.77798461914062,276600
2025-07-15,154.95479334988428,155.21019713887813,151.34959626569866,151.43800354003906,254200
2025-07-16,151.2022489800424,152.8624112264187,150.83878682765217,152.2435302734375,261900
2025-07-17,152.00776275022704,153.64827377805926,151.78181306560424,153.2749786376953,397700
2025-07-18,154.08053795548372,154.43418210944483,152.18460777221878,153.61883544921875,243100
2025-07-21,153.65810471165034,153.9036904847458,152.49894705753542,152.70523071289062,205900
2025-07-22,153.3535904509508,156.54620570312537,152.48912367837994,156.35955810546875,449900
2025-07-23,157.24366585052525,158.99223535423732,156.3300789809644,158.8055877685547,450500
2025-07-24,158.559320268112,161.82979531304568,157.40675735764995,159.406494140625,431900
2025-07-25,159.63305506440543,160.65753702914088,158.3819926877325,158.5888671875,296300
2025-07-28,158.79572064833397,159.5640858506177,155.80106845369062,156.3330078125,308500
2025-07-29,156.67778300817795,157.21958280159953,154.8750755307235,156.4512176513672,388200
2025-07-30,156.4315385130725,156.55958937255576,152.60940298667225,154.45150756835938,580700
2025-07-31,153.456563501654,155.0031544025075,152.86550639902828,154.79627990722656,679700
2025-08-01,154.6288158726098,155.76165777291718,138.9856590147076,139.24179077148438,1012300
2025-08-04,140.98538123418317,140.98538123418317,135.03547356824112,137.05490112304688,839000
2025-08-05,137.2617519084508,138.9659599251385,135.63636753338238,138.12863159179688,540800
2025-08-06,138.21729882019278,138.6605841437307,135.49846914211423,136.47369384765625,515300
2025-08-07,137.71491162131494,139.37970798596095,136.83818640949156,138.39462280273438,564000
2025-08-08,138.59163887027924,139.93135534040795,138.48327889728324,138.65074157714844,428700
2025-08-11,139.222090228796,139.5077583171329,137.12385398637957,137.7838592529297,349500
2025-08-12,138.12862654943748,138.98564573069308,137.15338694127408,137.399658203125,286100
2025-08-13,137.60654859738395,139.33044762978915,137.17310872138614,139.32058715820312,729900
2025-08-14,138.09908585404855,138.09908585404855,134.405016641309,136.27667236328125,875800
2025-08-15,136.29640019144338,136.87759690021682,135.8137029921251,136.65103149414062,770500
2025-08-18,136.81848979115895,137.4883555774846,135.30146511966976,135.83340454101562,529500
2025-08-19,136.20773671589527,138.4241784468644,136.20773671589527,137.50804138183594,333100
2025-08-20,137.82329326337526,139.14330400896117,137.18297877487387,139.0743408203125,519200
2025-08-21,138.53252821704885,139.78357552390523,138.1483456132288,138.54237365722656,270400
2025-08-22,139.15312448451428,141.19225798353852,139.08417633944555,139.32058715820312,356500
2025-08-25,138.8674588166062,139.4979127296023,136.88744301904194,137.47848510742188,245800
2025-08-26,136.9957973337368,138.06953652648775,135.95159446141804,137.62625122070312,442900
2025-08-27,137.01548945470773,138.47342629437426,136.95638675089546,137.3602752685547,729100
2025-08-28,138.07938928608468,138.07938928608468,135.35069910089788,136.8184814453125,320800
2025-08-29,137.09431078109077,137.78386744151146,136.28654870208595,137.1928253173828,370700
2025-09-02,135.37041901487592,136.46386429017952,134.13906239994887,134.37548828125,310600
2025-09-03,134.0504057475134,134.1489052560839,132.4348665011149,133.20323181152344,382300
2025-09-04,134.3163671782823,136.41458834161003,133.0258929963137,136.3948974609375,401800
2025-09-05,136.94654859153968,138.7197049562119,135.5772807659998,136.55250549316406,440800
2025-09-08,136.52295752982062,137.91193130257207,135.62652636886406,136.23728942871094,616100
2025-09-09,136.1978803964661,137.39968559639797,133.08502244977814,135.0059356689453,637100
2025-09-10,134.09965957050477,135.40982475360394,132.83875165602893,134.21786499023438,685100
2025-09-11,134.71042041690438,136.21759978653094,133.84354050661113,135.05520629882812,477500
2025-09-12,134.58232620679007,135.00592063066784,133.20321303157323,133.2130584716797,261300
2025-09-15,133.9420357302436,134.13904976383114,132.62202517087903,132.8387451171875,298000
2025-09-16,132.77962562814162,133.40023410540573,132.0999294759084,133.19337463378906,474800
2025-09-17,133.40021279614652,135.0256121123868,132.18856241946168,132.64169311523438,377400
2025-09-18,132.88798558145595,133.48888814617573,132.07037810452255,132.49395751953125,254800
2025-09-19,132.65158018177598,133.0850200863436,131.35126046807318,132.4348602294922,877200
2025-09-22,132.11962230163485,132.92739938115005,130.691251766929,130.74050903320312,402100
2025-09-23,131.0261738005905,131.95215627068484,130.00169183165633,130.0509490966797,319700
2025-09-24,130.03125417731107,131.3217134615017,129.38109429893456,129.53871154785156,353300
2025-09-25,129.53870141670419,130.54349251095573,128.32705085173455,128.8688507080078,388700
2025-09-26,129.37123644965243,130.4548211118124,129.00675974879576,130.31690979003906,274400
2025-09-29,130.42527680922657,130.7010994676822,129.4007947965638,130.29722595214844,540600
2025-09-30,129.74556051826093,131.76497287644372,129.74556051826093,131.66647338867188,310400
2025-10-01,131.3413962300209,132.3560326654084,130.33660523425266,132.13931274414062,310100
2025-10-02,131.66650104495739,132.38560908468045,130.9769443608936,131.1936492919922,398500
2025-10-03,130.49423360821496,131.58767874762543,130.45482178395852,131.23304748535156,402000
2025-10-06,130.90797079558112,131.21334480064905,129.45004891757588,129.9130401611328,447100
2025-10-07,130.13960666531722,130.5336347337186,127.8739076939909,128.64227294921875,438800
2025-10-08,129.22345454639873,130.04107697266164,128.31717806976172,129.6470489501953,361300
2025-10-09,129.73572663806536,130.8587232410274,128.2580987377885,128.6619873046875,554200
2025-10-10,128.98704858156654,130.04108184834632,127.95270619480443,128.97718811035156,426000
2025-10-13,129.03630601031335,130.37602238234368,128.2186835523413,128.2777862548828,311400
2025-10-14,128.10047791511465,129.10526906801942,127.11539267573563,127.86406707763672,337400
2025-10-15,127.86406447402499,128.44526114593418,125.95299674355027,126.18942260742188,438300
2025-10-16,126.5243419047704,127.56852978216413,125.94313774513942,127.23360443115234,352700
2025-10-17,127.23361868299475,128.15960125344935,126.92824465044238,127.41092681884766,339700
2025-10-20,127.67688307805489,128.1497197271898,126.11060134384137,128.06106567382812,240500
2025-10-21,128.6619859078428,129.80468841247423,127.19420346493476,128.62258911132812,311600
2025-10-22,128.7013595529612,130.1395903819656,128.04135435380616,128.1201629638672,357500
2025-10-23,128.27838836608,130.0482160538345,128.19928781482736,129.29678344726562,378600
2025-10-24,129.27699821696652,129.41542040316887,127.09188897025071,127.42807006835938,489300
2025-10-27,127.68513804202082,128.43657062662018,127.00290900843953,127.32919311523438,521700
2025-10-28,127.29953156353623,127.65547648827675,126.03395296154486,126.6568603515625,413500
2025-10-29,125.84608767724626,126.06361040803851,122.02957306455488,122.9095458984375,651100
2025-10-30,122.6425973459498,124.10591981246533,121.65386309537952,122.95899200439453,702600
2025-10-31,113.99116650647636,116.76950718685458,102.0670345015107,114.70305633544922,2758200
2025-11-03,114.78215353846566,114.78215353846566,107.07003104374891,111.84561920166016,1661000
2025-11-04,113.0716415827989,114.69316503673943,111.26225622049985,112.89366912841797,1029100
2025-11-05,113.04198468525121,114.73271928879292,111.49955417930168,114.26801300048828,896900
2025-11-06,113.72420198995826,115.64234871180304,112.517952627641,114.84147644042969,880300
2025-11-07,114.9205721317626,115.60279355716192,113.39792065465342,114.91068267822266,697200
2025-11-10,114.68327245708623,115.45448389057002,112.7156936019875,115.06887817382812,514000
2025-11-11,115.64235215314066,118.16362740289492,115.64235215314066,116.93759155273438,484800
2025-11-12,117.0067994446968,118.32181771681981,116.58165098825971,116.8288345336914,547500
2025-11-13,116.96725913412712,120.50692184487997,116.96725913412712,118.8458480834961,679400
2025-11-14,118.4207010320388,119.33034229985671,117.05625044547779,117.27377319335938,521200
2025-11-17,117.15511423578639,118.1438484441411,116.24548057452645,117.99553680419922,820200
2025-11-18,118.31193671929118,118.75686408712447,116.72995598156568,117.96587371826172,817400
2025-11-19,118.16362210922091,118.16362210922091,116.38389759577892,116.6706314086914,598900
2025-11-20,116.67063483535937,118.26249749040201,116.04773500908134,117.24410247802734,507400
2025-11-21,116.79917713070375,120.86287560236238,116.79917713070375,120.15098571777344,509100
2025-11-24,119.48852930748254,121.02107037008182,119.08315219875638,120.10154724121094,740000
2025-11-25,121.0309595133857,122.68214385066395,121.0309595133857,122.04935455322266,543600
2025-11-26,121.63407548431789,123.11717675407199,121.63407548431789,122.41517639160156,538000
2025-11-28,122.23720423365944,124.65960750619288,122.23720423365944,123.34458923339844,315700
2025-12-01,123.47312464549341,123.55222519221778,121.64396787729149,121.89115142822266,536800
2025-12-02,122.37563109798752,122.46462110038372,119.4390968008952,120.2300796508789,325400
2025-12-03,120.08176229804191,122.86011045381893,120.04221956935034,120.68489074707031,543100
2025-12-04,120.82332005860296,122.6821452414219,120.55636513524256,120.64534759521484,708000
2025-12-05,120.61568357957054,122.11856379579517,119.26112254625717,120.53659057617188,537000
2025-12-08,119.55773823925648,120.72444490270962,117.95599365521366,118.71731567382812,496600
2025-12-09,118.25260671307173,118.49979025868578,114.06037589162156,114.41632080078125,640300
2025-12-10,114.86124902547321,116.47289058274676,113.83296456280685,115.84998321533203,734700
2025-12-11,116.6310870053096,117.33308739219939,115.84010415999195,116.68052673339844,389700
2025-12-12,117.18477675810965,120.26963024864754,116.32458281214376,120.10154724121094,656400
2025-12-15,120.11143594513233,121.08039125301917,119.12270172858626,120.95185852050781,588600
2025-12-16,121.28802692871906,122.45473362902362,118.17351257639858,121.44622802734375,644800
2025-12-17,120.73434038745187,123.19628656831932,118.72721105831677,122.23721313476562,567300
2025-12-18,122.2767604710972,122.72169540087228,120.65523693661119,121.23859405517578,457100
2025-12-19,121.95047437935206,122.92932668285609,119.89391294648267,120.02244567871094,1300400
2025-12-22,120.02244150583525,122.30641504771651,119.70604686997531,121.35723114013672,527800
2025-12-23,121.48577032424926,121.6439638690421,119.95322934159698,120.81343078613281,311700
2025-12-24,121.1496037277725,121.7823930301015,120.38828169146663,121.36712646484375,198000
2025-12-26,120.99141254975284,122.08890816765887,120.34873378036154,121.86149597167969,306000
2025-12-29,121.90103810595791,122.90954365167185,120.9419647432383,121.82193756103516,400200
2025-12-30,121.41656032047763,122.89966159046664,121.0408365042768,121.35723114013672,289800
2025-12-31,120.15097596397585,121.94058998507745,119.98289296138277,120.58602142333984,314300
2026-01-02,120.36850967713042,121.61431698770537,119.41932566926891,121.15950012207031,295100
2026-01-05,120.3882753233874,123.17650539661395,120.3882753233874,121.61430358886719,435700
2026-01-06,120.84309994356978,121.4659997987374,118.75687009500949,119.20179748535156,777200
2026-01-07,119.31054977502313,120.57612829815741,116.28502564669009,119.08314514160156,478500
2026-01-08,118.56900865138992,121.98014631699301,118.17351344536358,121.06062316894531,330000
2026-01-09,120.70467850674399,123.5621198728979,120.09166055886544,122.4547348022461,429100
2026-01-12,122.60303947816963,123.88839694168902,121.59453392415777,123.72030639648438,477300
2026-01-13,123.64121411549613,124.02681984811237,121.15948917361368,122.10867309570312,351900
2026-01-14,122.71179941985773,125.7274416797615,122.71179941985773,125.42092895507812,611700
2026-01-15,125.70766789113175,125.78676843900955,123.11718152395939,123.7005386352539,381000
2026-01-16,122.60303809087354,123.78951608727894,121.85159800331378,123.30503845214844,363400
2026-01-20,123.49289879622381,124.11579860493296,122.0493478196131,122.42506408691406,275100
2026-01-21,122.90955081825824,124.20479780070094,122.50417370291805,123.60166931152344,421000
2026-01-22,123.64121667891544,124.98589581561515,122.66236437418617,123.0677490234375,369700
2026-01-23,122.93921055756546,124.85735737798285,122.4745118058816,124.58051300048828,429500
2026-01-26,124.99577817123766,125.55935637440064,123.69064930373163,124.92656707763672,315400
2026-01-27,123.54233481410213,124.87713201390274,122.77112334791536,123.33470153808594,303100
2026-01-28,122.80078648003611,123.6609879626866,121.8614919932062,122.3064193725586,347800
2026-01-29,122.88978028418853,123.86862507511535,121.20892754069328,122.4547348022461,386000
2026-01-30,121.52532437660433,123.60166469190948,121.27814082612888,123.5423355102539,512700
2026-02-02,122.80078342815366,124.49152553193812,122.80078342815366,123.42369079589844,489100
2026-02-03,122.51405462375108,126.48876266797768,122.29653189940339,123.22593688964844,658700
2026-02-04,124.77433039015442,129.44927260782487,123.77184577350829,128.26812744140625,589400
2026-02-05,126.71975064755804,128.1192596554473,121.05225107397254,123.05722045898438,2144200
2026-02-06,126.58078326238557,134.97782150042084,126.58078326238557,133.31031799316406,1045700
2026-02-09,132.5857587104382,138.531180271334,132.2582131007177,137.43936157226562,1043400
2026-02-10,136.78427392403074,139.88104683101494,136.78427392403074,139.126708984375,622100
2026-02-11,137.99519392074043,139.50388475135443,137.56840169460276,138.9678955078125,584300
2026-02-12,139.11678651599092,140.94308767923593,138.3525134196047,139.46417236328125,572700
2026-02-13,139.46416820425452,141.86615414747763,139.36492159879577,141.51876831054688,471900
2026-02-17,138.2234773285034,142.55102629654255,138.2234773285034,140.59568786621094,614700
2026-02-18,140.41703714664675,142.04482998774162,139.791721402891,140.66517639160156,582000
2026-02-19,140.5956812663536,142.25326464590432,139.98030082414553,142.09445190429688,525500
2026-02-20,142.0547550361601,144.0597244456509,140.94309602664507,143.97039794921875,664500
2026-02-23,142.42199361111417,145.15152505885825,142.06467252487357,144.63539123535156,513500
2026-02-24,144.98279666295065,145.8165408414096,142.77931908758302,143.06715393066406,429800
2026-02-25,141.3500320156877,142.5907281428982,139.3847584456305,141.61801147460938,348900
2026-02-26,142.45178416412276,142.8488009040386,139.9505362960431,140.73464965820312,331300
2026-02-27,140.47658357934912,142.9381205686862,139.9505296087492,142.64036560058594,344600
2026-03-02,141.93563886113196,142.2830398395081,140.56590547180699,141.60809326171875,335000
2026-03-03,139.5931967078321,140.26814325067423,135.90088396317486,138.71974182128906,347300
2026-03-04,138.302888395737,138.47162126788456,134.9976717766612,136.02000427246094,389000
2026-03-05,134.98775502807862,135.32522078079646,133.40959299752922,133.72720336914062,452300
2026-03-06,133.0026313554941,133.0026313554941,130.02496050425168,131.096923828125,398500
2026-03-09,129.9951790988654,132.98276993154295,126.58078092139597,132.75448608398438,545700
2026-03-10,132.3574660154593,133.1316591702968,130.42196798314936,131.14654541015625,503100
2026-03-11,130.8190202738326,132.28800044532838,129.0721101988683,131.03738403320312,563800
2026-03-12,130.29295237048808,131.8016279987067,127.68252279954663,127.90088653564453,620600
2026-03-13,129.1812869710477,129.1812869710477,126.10436937058473,127.69245147705078,660600
2026-03-16,128.51628506786432,130.4319280867629,125.06219070801843,128.08949279785156,370700
2026-03-17,129.00263581888095,130.04482370856644,127.28551643200822,128.5361328125,276700
2026-03-18,123.45423058912087,125.63786042046195,120.51626292882625,123.29542541503906,910500
2026-03-19,122.0944332187195,123.8909588849741,120.54603921873606,123.04728698730469,518500
2026-03-20,123.33512999241371,123.33512999241371,119.41452545613383,120.15894317626953,1481500
2026-03-23,122.59071811756196,125.39964869362488,122.0745842329971,123.21602630615234,455200
2026-03-24,122.2433152775169,124.28798013248851,121.95547285876513,123.22594451904297,405000
2026-03-25,124.50634549167631,125.62793211237509,122.78921864642815,124.88351440429688,337200
2026-03-26,124.28798636131239,126.3922023143744,123.19617519683187,123.76193237304688,442100
2026-03-27,123.01751427118627,123.28550132328671,120.85373975633635,121.08202362060547,381400
2026-03-30,121.64777727824665,123.01751071469691,120.19864504103799,122.44182586669922,562000
2026-03-31,123.46415851677581,126.01502957768723,122.67010992701152,125.08202362060547,557800
2026-04-01,126.39219982096562,127.68252689973865,125.38972274230011,125.80659484863281,380200
2026-04-02,124.2085781211438,126.14406117582702,123.32520302720033,125.07210540771484,297500
2026-04-06,123.66266876079281,125.25076596450165,123.66266876079281,125.07210540771484,461100
2026-04-07,124.38723692091199,126.22346576757812,123.8711106378232,124.67507934570312,376900
2026-04-08,130.4021481364575,131.68254004802253,127.19617800807119,131.03738403320312,645200
2026-04-09,130.24332882387228,131.45424955756675,126.39220287440348,130.42198181152344,424100
2026-04-10,131.2656579543429,131.71230555728022,129.87608426848973,130.521240234375,407400
2026-04-13,129.82646170678544,131.43439923843442,126.63042687940094,131.126708984375,396300
2026-04-14,130.2532453341348,131.73216065356567,129.99518597737963,130.03488159179688,315500
2026-04-15,129.83636721114993,130.0547309433663,127.64282491736233,128.68499755859375,407100
2026-04-16,125.9554827551545,129.3599535123959,125.9554827551545,127.33512878417969,393800
2026-04-17,128.68501330537714,131.31529853067389,128.68501330537714,129.65773010253906,401100
2026-04-20,129.59817078840075,131.00759986778516,128.69494031122633,129.945556640625,403600
2026-04-21,129.727195499975,131.2656618627598,125.7470474243164,125.7470474243164,310200
2026-04-22,126.33264680138942,126.33264680138942,122.04480110008107,123.62297058105469,458900
2026-04-23,124.44679072012924,126.49146323670142,123.51379231359721,124.01007080078125,440800
2026-04-24,123.48400922187079,123.48400922187079,121.6577005635927,123.15646362304688,440900
2026-04-27,123.11676141393268,125.2904634945878,122.6204829533344,123.80162811279297,359700
2026-04-28,125.18128618602746,125.70734016180099,122.79914797388655,124.8338851928711,354300
2026-04-29,124.20857785922294,124.96292327213307,121.87607050853111,121.9852523803711,448400
2026-04-30,122.51130595027864,125.14158341040145,120.97283963229869,122.75944519042969,764800
2026-05-01,126.26316859263083,127.5237125861033,117.0224658192811,118.13412475585938,989400
2026-05-04,117.79666211505766,120.84381172589876,116.58574139374336,119.7023696899414,739600
2026-05-05,120.00014032911528,122.78922301811379,119.92073395333378,121.1217269897461,628600
2026-05-06,122.74597925597982,125.94466800462597,121.24129756714204,122.19791412353516,917000
2026-05-07,122.5068295340525,126.02439054042098,122.13813047351475,124.66918182373047,749700
2026-05-08,124.78875603965518,125.4165335007669,119.9658058031768,120.56369018554688,794900
2026-05-11,120.79288554794945,120.79288554794945,119.0191585502766,119.53732299804688,706100
2026-05-12,120.02559365453983,120.43415267647454,116.72725880994862,117.6340560913086,696600
2026-05-13,117.58423293808002,118.33159035082205,116.01976505817387,117.46465301513672,679500
2026-05-14,118.31166263789773,119.73662439056804,116.62761485678391,117.57426452636719,531000
2026-05-15,117.49455009110837,117.5045093824967,114.06666843041747,114.26596069335938,447000
2026-05-18,115.19268785792543,116.90662874327987,114.76420263658683,115.40194702148438,433100
2026-05-19,115.48166685737739,115.63113986049136,112.05378509001822,113.20970153808594,575800
2026-05-20,113.66807993613209,115.04321484042606,111.15696237122292,114.85388946533203,562600
2026-05-21,116.08951407739181,116.08951407739181,112.37265332877841,115.1030044555664,345600
2026-05-22,115.39198749681162,116.38846404651633,114.30582410432685,115.82047271728516,405800
2026-05-26,115.79056648170686,116.55785764558959,114.96349676302546,115.96993255615234,344500
2026-05-27,116.52796630163347,117.69384200162881,114.32575411191587,114.89374542236328,464000
2026-05-28,114.40547144179769,115.93007936247552,112.95061657623215,115.58131408691406,510100
2026-05-29,114.65458561775299,116.84683851674723,113.34920381323532,115.44180297851562,559600
2026-06-01,114.28589767180515,114.72434218302038,111.63526640610465,111.9840316772461,706800
2026-06-02,111.5555436879482,112.65167394505289,110.84804626905223,111.78473663330078,452400
2026-06-03,111.29646253608045,113.61824699938008,111.29646253608045,112.13349914550781,372600
2026-06-04,114.54497230632394,115.35212345281656,111.14699134502068,112.15343475341797,337600
2026-06-05,112.69152600064275,114.18624078068318,111.58544405772433,112.96057891845703,466300
2026-06-08,111.86445781905672,112.24311616501637,110.55906839000053,111.54558563232422,422200
2026-06-09,112.88085932662787,115.74074968498803,112.27300803930216,115.49163055419922,444400
2026-06-10,115.74074928767203,116.13934141606836,112.97054577921195,114.26596069335938,496800
2026-06-11,114.70441351982215,116.59772043978674,113.85740999319688,116.16923522949219,395200
2026-06-12,117.48458764205596,118.05257897569324,115.96993901734801,117.30522155761719,342600
2026-06-15,118.28175862932584,120.31457162088154,117.14577601676713,117.66394805908203,576100
2026-06-16,118.08246565966249,120.62348378448296,113.36912845320511,120.22489166259766,474700
2026-06-17,121.19147655168894,121.918900150595,119.03908362900873,119.56721496582031,680500
2026-06-18,120.03556323646836,122.1182031608104,118.69032142639777,119.89605712890625,750600
2026-06-22,119.13873446752551,120.58363003359555,118.46113010611298,119.57718658447266,468400
2026-06-23,119.93591657137902,122.14809569936509,118.6604278207416,120.1850357055664,514100
2026-06-24,121.55021059109053,124.60939323702425,121.34094382937874,123.84210205078125,404900
2026-06-25,125.28699706013307,127.68850153642342,124.45991971828299,125.98452758789062,363500
2026-06-26,125.49625757990486,126.67210019838983,124.3204149614199,125.53611755371094,727400
2026-06-29,125.16742108368359,125.60587320209562,123.48337326752176,124.84854888916016,446600
2026-06-30,124.16097333332938,125.86494727656601,123.5033027809896,124.75885772705078,329300
2026-07-01,124.67914609082169,126.39307933521575,123.66273577346423,124.80868530273438,405600
2026-07-02,125.82508774888942,127.77818082996899,124.96812492977865,126.5325927734375,468400
2026-07-06,125.98452783897301,126.6023460237271,123.74245564919634,125.56600952148438,431400
2026-07-07,126.18381913439254,128.26645901687073,125.71548155556971,127.2400894165039,392700
2026-07-08,126.00445175211411,126.26353777363065,122.60647080352626,123.77234649658203,537700
2026-07-09,124.02146439127118,125.03787467960888,123.34386006655016,124.0114974975586,302100
2026-07-10,124.55956853594634,126.53259544666133,123.93179104742975,125.08769989013672,385200
2026-07-13,125.64571994715708,126.72191640641843,123.96167980892794,124.449951171875,391600
2026-07-14,127.96751666781715,128.95403392567474,127.5091383673285,127.82801055908203,739900
2026-07-15,129.25298235497795,130.3092450844948,127.99741214779503,128.65509033203125,466800
2026-07-16,129.56187796196684,134.6040465870392,129.56187796196684,134.27520751953125,579300
2026-07-17,135.351401437915,136.16850424088722,130.24944675099272,132.1427459716797,530800
2026-07-20,131.9135687694055,131.9135687694055,129.2928306127641,129.4522705078125,422900
2026-07-21,130.07008242817932,130.59821378154385,127.46927803301472,128.45579528808594,328800
2026-07-22,129.35261865201468,130.02025611657908,128.02730301458666,128.71487426757812,309900
2026-07-23,128.39600579528673,129.36258923692642,127.71839385448645,128.54547119140625,382800
2026-07-24,129.13338680160044,132.26232242316664,129.13338680160044,131.8936309814453,335900
2026-07-27,132.72071171310446,133.60757521827134,132.19258036761323,132.9000701904297,411200
2026-07-28,134.9030016293852,137.54365843276426,134.3549364800917,137.32443237304688,593100
2026-07-29,135.52081464440568,136.11870667337666,134.0759266469227,135.75,580000
2026-07-30,136.39999389648438,136.39999389648438,133.11000061035156,133.8699951171875,627000
2026-07-31,137.4600067138672,139.57000732421875,132.1699981689453,133.9600067138672,886500
2026-08-03,137.22999572753906,138.4600067138672,134.52999877929688,136.77000427246094,642500
2026-08-04,137.8699951171875,137.8699951171875,135.33999633789062,136.17999267578125,511900
2026-08-05,136.8699951171875,136.8800048828125,134.8699951171875,136.75,454800
2026-08-06,138.6199951171875,138.69000244140625,134.6699981689453,135.77999877929688,545000
2026-08-07,135.05999755859375,137.67999267578125,134.7100067138672,135.4199981689453,686300
2026-08-10,134.38999938964844,134.52000427246094,132.92999267578125,133.67999267578125,446700
2026-08-11,132.8000030517578,135.0500030517578,132.8000030517578,134.75,343700
2026-08-12,133.50999450683594,134.47000122070312,132.27000427246094,133.14999389648438,315100
2026-08-13,134.44000244140625,134.44000244140625,132.08999633789062,132.57000732421875,490800
2026-08-14,132.08999633789062,132.75,129.55999755859375,132.10000610351562,381600
2026-08-17,133.16000366210938,133.16000366210938,130.22000122070312,131.74000549316406,374500
2026-08-18,132.75,133.47000122070312,131.22000122070312,131.72999572753906,500100
2026-08-19,133.0500030517578,134.3800048828125,132.2899932861328,132.92999267578125,390400
2026-08-20,131.4499969482422,133.8300018310547,130.89999389648438,132.9600067138672,420900
2026-08-21,134.0399932861328,135.1300048828125,133.10000610351562,134.8000030517578,400500
2026-08-24,135.36000061035156,136.33999633789062,134.38999938964844,134.75,282300
2026-08-25,135.58999633789062,135.58999633789062,133.22000122070312,134.72000122070312,280900
2026-08-26,135.0,136.63999938964844,134.44000244140625,135.24000549316406,281400
2026-08-27,133.77999877929688,134.69000244140625,132.25999450683594,132.86000061035156,295700
2026-08-28,133.5500030517578,133.66000366210938,132.0399932861328,132.99000549316406,325400
2026-08-31,132.2100067138672,132.44000244140625,130.8300018310547,131.6199951171875,389200
2026-09-01,131.64999389648438,132.07000732421875,130.77999877929688,130.9199981689453,418200
2026-09-02,131.27000427246094,132.25999450683594,129.69000244140625,130.3300018310547,472500
2026-09-03,130.64999389648438,130.64999389648438,126.98999786376953,128.30999755859375,340000
2026-09-04,127.52999877929688,128.47000122070312,126.52999877929688,127.41000366210938,324000
2026-09-08,126.19999694824219,126.98999786376953,124.29000091552734,124.33999633789062,362192
