Date,Open,High,Low,Close,Volume
2023-09-05,126.66146169919045,126.95003116428316,122.50611130451453,122.7081069946289,325300.0
2023-09-06,122.91971901854386,123.13132830124047,121.39031265265571,121.59231567382812,291100.0
2023-09-07,121.47690066194134,122.32335990781417,120.37072740905084,120.58234405517578,328600.0
2023-09-08,120.72660753492579,121.84239419256309,120.35147166964357,120.53422546386719,238800.0
2023-09-11,122.15021460292593,123.05439211199419,121.5923248683561,122.1694564819336,333500.0
2023-09-12,121.30374940797992,122.43877803875952,120.64004404886371,121.7077407836914,258000.0
2023-09-13,120.98633519332367,121.76546253535643,120.34187165513295,120.59196472167969,279300.0
2023-09-14,121.20756165253754,122.44839859285891,121.20756165253754,121.9289779663086,217900.0
2023-09-15,121.66927042883084,122.35221036140925,120.39957794288019,121.130615234375,589200.0
2023-09-18,121.54421485235763,121.54421485235763,120.15909325311112,120.85165405273438,175100.0
2023-09-19,120.8997477295657,120.8997477295657,119.3318650395971,120.53422546386719,218600.0
2023-09-20,121.04402623277237,121.2941192581564,119.81281032107518,119.88014221191406,206200.0
2023-09-21,119.59158924649155,119.61082378593244,117.53314861088099,117.56200408935547,335700.0
2023-09-22,117.66780374067143,118.21607980720373,117.45618712926849,118.00446319580078,341200.0
2023-09-25,117.34076318501396,119.3992037620622,116.84058444889169,119.31263732910156,258800.0
2023-09-26,118.82208765283667,119.48579307972594,118.53352550013086,118.88941955566406,547000.0
2023-09-27,119.31264031088143,119.70701074637915,118.18723262251139,118.81245422363281,362400.0
2023-09-28,119.13951499349325,120.85167541824232,118.56238333798404,120.68815612792969,219300.0
2023-09-29,121.66926377216642,121.99630964992629,120.03405639924574,120.27452850341797,330900.0
2023-10-02,119.7839706824147,120.69776913733538,119.26455002499831,120.2841567993164,244100.0
2023-10-03,119.29340648562564,120.53424350988173,117.82171828016256,118.18724060058594,236300.0
2023-10-04,118.84133024310002,119.90902709333459,117.6678250679862,119.49541473388672,208200.0
2023-10-05,119.23567945050839,120.1687123278283,118.11989277624103,119.03368377685547,466700.0
2023-10-06,118.89902522929134,121.86164325055658,118.68740860796868,121.59231567382812,491700.0
2023-10-09,121.02480176411956,122.3714470315645,120.89975891033677,122.10211944580078,275700.0
2023-10-10,122.39067273660791,123.70846243025989,121.68849834421273,121.71735382080078,322000.0
2023-10-11,122.66963195800781,122.83315123204267,121.82317277009818,122.66963195800781,212900.0
2023-10-12,122.37145501488276,122.54459523683002,120.29377235151563,120.64005279541016,189300.0
2023-10-13,121.19794575056598,121.84240925638196,120.62081414328858,121.1690902709961,324900.0
2023-10-16,122.50609587426048,122.57342776248449,121.36144643582706,121.88086700439453,275200.0
2023-10-17,121.20755913507936,123.44875352595633,121.20755913507936,122.62153625488281,314400.0
2023-10-18,122.03478544306672,122.80429176930639,121.46726746403726,121.94821166992188,287300.0
2023-10-19,121.27488424535677,122.61190845722675,120.61117893923942,120.93822479248047,443900.0
2023-10-20,121.13060925368268,121.65965082113568,117.28305556639171,117.56200408935547,446500.0
2023-10-23,117.08106243237853,118.46618413837787,116.59049727173269,116.86944580078125,379000.0
2023-10-24,117.47543620540878,119.05293270920211,117.08106574877378,118.63932037353516,312100.0
2023-10-25,118.15678039457973,119.45965936903156,117.63562733217842,118.098876953125,431300.0
2023-10-26,117.02762161826153,121.01346812446944,117.02762161826153,119.12187957763672,576000.0
2023-10-27,119.16045963942044,119.51754061287565,116.15900909641817,116.94073486328125,364000.0
2023-10-30,117.66456388692826,118.05060396077593,116.63191092316939,117.90583801269531,283100.0
2023-10-31,118.23397832287583,118.60071235470951,117.577712385893,118.00234985351562,422900.0
2023-11-01,117.847941489138,119.12186865336518,117.36539320930797,118.63932037353516,360500.0
2023-11-02,119.40174500651636,119.9518497393298,118.68757562918539,119.26663208007812,384300.0
2023-11-03,120.08696643881918,121.57321603943892,120.08696643881918,120.974853515625,278000.0
2023-11-06,120.89764432950582,121.34159523213705,120.39579735185238,120.82044219970703,173500.0
2023-11-07,120.27033814314946,120.62741916445184,119.8360402653971,120.2027816772461,205000.0
2023-11-08,120.52124020640629,121.10994962106976,120.06765106675707,120.75286865234375,175800.0
2023-11-09,121.30299122840282,121.30299122840282,119.73953212154,120.0483627319336,118600.0
2023-11-10,119.90357848136097,121.39948089409748,119.56579620325637,121.33192443847656,195600.0
2023-11-13,121.01345529818798,121.1003178161299,120.02906006116073,120.1834716796875,183100.0
2023-11-14,121.55391115797988,123.39724915782807,120.936249936579,123.3875961303711,267400.0
2023-11-15,123.35864839876807,124.304446316357,122.90505181396026,123.25248718261719,388600.0
2023-11-16,123.19458405532637,124.13072158442283,122.41285079230998,123.09807586669922,217000.0
2023-11-17,124.07280612990299,124.57466044313415,123.1559673820683,123.46479797363281,162700.0
2023-11-20,123.00155090272261,123.1945746283093,122.01715567308845,122.87609100341797,213900.0
2023-11-21,123.0111977669835,123.82188264762816,122.76027061784326,123.44549560546875,160600.0
2023-11-22,123.96665977430045,124.69048225028065,122.914707976832,124.08248138427734,174800.0
2023-11-24,124.46850623760841,124.46850623760841,123.6288769312162,124.04386138916016,65900.0
2023-11-27,123.3586396115106,123.82188919108859,122.42249478837549,122.5672607421875,367500.0
2023-11-28,122.56726027052797,122.57691329757223,121.10996243713889,121.22577667236328,218000.0
2023-11-29,121.25472870985266,121.98820414200175,120.55985802288006,120.99415588378906,331800.0
2023-11-30,121.07137144789151,122.69273410973697,120.45371018272209,122.46111297607422,301000.0
2023-12-01,122.00750584736005,124.05350585054758,122.00750584736005,123.62887573242188,218300.0
2023-12-04,123.00154595197841,124.38164160429274,122.4610942682931,123.93769073486328,192000.0
2023-12-05,123.77363433441964,124.1982791787773,121.48635282699652,121.59251403808594,178000.0
2023-12-06,121.9785577252861,122.85679915866584,121.48635640148973,121.95925903320312,179500.0
2023-12-07,121.83378385096688,122.67342048254547,121.59250971853534,122.07505798339844,254000.0
2023-12-08,121.94959920990867,123.04980867489485,121.2354298329936,122.87609100341797,265800.0
2023-12-11,122.81818541054639,123.22352418250709,121.93029101464404,123.11736297607422,338000.0
2023-12-12,123.19458223267412,123.62888011972512,122.25843735432503,123.030517578125,210300.0
2023-12-13,122.74098611390058,124.48781597010334,122.74098611390058,124.10176849365234,425000.0
2023-12-14,124.57467841526314,125.4722112388653,122.45146134923064,122.95331573486328,412900.0
2023-12-15,122.72169244407033,124.09212790759474,121.57322508471096,121.58287811279297,713000.0
2023-12-18,122.2873800147062,122.76992827805668,121.48634813039989,122.61551666259766,240500.0
2023-12-19,123.25248124676398,123.65782739941075,121.63111872548421,121.82414245605469,659100.0
2023-12-20,121.62147008946454,122.50936455594228,121.08101835055845,121.18717956542969,346400.0
2023-12-21,121.83378846573932,121.83378846573932,120.49230482765589,121.51531219482422,421900.0
2023-12-22,121.98820682835046,122.60586803857178,121.71798096926643,121.86273956298828,312200.0
2023-12-26,121.73726500519032,122.44178864993196,121.20645901510406,121.4380874633789,274700.0
2023-12-27,121.71798784257851,122.05577018550782,120.6660287024811,120.90730285644531,283100.0
2023-12-28,120.61777069727657,121.40914957794178,120.05801292816882,120.83008575439453,343600.0
2023-12-29,120.820430362007,120.98449499602071,119.24731839145845,119.30522918701172,313500.0
2024-01-02,118.33049161771078,119.76848345240212,118.02166100831862,118.591064453125,313100.0
2024-01-03,120.78183530676975,122.8181896264616,118.8516421971549,120.98450469970703,531700.0
2024-01-04,120.81077670302624,121.52494603089515,119.79742246182032,119.88428497314453,353300.0
2024-01-05,119.45964384127878,120.02905460628045,118.69721672111496,119.86498260498047,423000.0
2024-01-08,119.73952451966014,120.7914835515639,118.09886338668615,120.00975036621094,352400.0
2024-01-09,119.39208129228734,120.2896212879152,118.67791197888397,120.27996826171875,250300.0
2024-01-10,120.11591846241205,121.04241028792013,119.89395037419895,120.82044219970703,279600.0
2024-01-11,121.00380927134914,122.53831669687723,120.57917177350777,122.41284942626953,323100.0
2024-01-12,123.42619088636619,123.50340037356722,121.52494960187714,122.01715087890625,231700.0
2024-01-16,121.48636332679119,122.39355653156106,121.12928227963094,122.38390350341797,257500.0
2024-01-17,121.54426685222283,122.8278397204519,121.49600907750106,122.2680892944336,336900.0
2024-01-18,122.87608540424257,125.47218996794025,121.9013358829781,124.63256072998047,444200.0
2024-01-19,125.18269023740162,126.87160933829033,124.0535142223177,126.2346420288086,418000.0
2024-01-22,126.33112146870488,127.20936278677414,126.00299220465814,126.61100769042969,266200.0
2024-01-23,127.19974700779234,127.2480047876553,125.7810536918206,127.22869873046875,217800.0
2024-01-24,127.50856564710675,127.67263031169915,125.98371116146367,126.21533966064453,294400.0
2024-01-25,127.42168120715766,127.75947085008025,125.8292779789865,126.66890716552734,332300.0
2024-01-26,127.08389676698607,127.9621380935772,126.81367093206627,127.10320281982422,219900.0
2024-01-29,126.47588235627074,127.96212428798177,125.93543074473946,127.63399505615234,187800.0
2024-01-30,127.42167267645048,128.44467247344926,127.03564001855727,127.63399505615234,228400.0
2024-01-31,128.14711126677335,128.53435928082044,125.03952535355248,125.73655700683594,537500.0
2024-02-01,126.29802880861344,126.9272863867129,125.47513987848507,126.33674621582031,298800.0
2024-02-02,125.81399083086278,126.54006414764015,124.58450254495992,125.94952392578125,344800.0
2024-02-05,125.01048880090507,127.25646828783212,123.96494127747282,126.48198699951172,319500.0
2024-02-06,126.31742086735336,127.20806924035398,125.1750723363318,126.94669342041016,369700.0
2024-02-07,127.21773359206935,128.1955070379212,125.24280583648746,127.59529113769531,393000.0
2024-02-08,127.4404150760117,130.5383255987766,127.34359937104924,127.90509796142578,620700.0
2024-02-09,127.89539518747246,134.76889516663638,127.3145306248391,134.52687072753906,650900.0
2024-02-12,134.7205256063229,135.9887316640438,133.12315499117534,133.219970703125,491300.0
2024-02-13,132.32930021222504,132.9488822581375,130.67384635486445,131.59353637695312,275900.0
2024-02-14,131.91300327103065,133.0747324694231,130.8577801954245,132.79397583007812,335000.0
2024-02-15,132.7939868427026,133.41356890629376,130.27694117211416,130.73193359375,471400.0
2024-02-16,131.05141105332157,133.59751331676136,130.73193696622823,133.11346435546875,453900.0
2024-02-20,132.76492924425213,135.66922259050702,132.580988302136,135.23358154296875,373000.0
2024-02-21,134.64307352382625,135.64021329621986,134.5559482478703,135.53372192382812,276300.0
2024-02-22,135.98873483170965,137.8765230826723,135.60150151889823,136.9568328857422,295700.0
2024-02-23,137.44086687732337,137.5183164858138,136.1145774154304,136.85032653808594,190300.0
2024-02-26,136.98584148427423,137.5279738997732,136.3081759649005,137.39244079589844,199200.0
2024-02-27,137.39245476737844,137.64415490816972,135.34009190799827,135.8338165283203,244600.0
2024-02-28,135.19485448974754,136.73414124839545,134.88507086916457,135.9306182861328,189600.0
2024-02-29,136.14360929042408,137.1117071682836,135.36912803373622,135.97903442382812,250600.0
2024-03-01,135.41752898322991,136.298486780481,135.10773058753682,135.81443786621094,151400.0
2024-03-04,136.20169440578695,137.5860672968912,136.07583695314057,137.43118286132812,260300.0
2024-03-05,137.73128791076408,138.64130227082694,137.21819722213309,137.9733123779297,190200.0
2024-03-06,138.37021994084103,139.05757592063267,137.93457885855102,138.50576782226562,184000.0
2024-03-07,139.8901153528636,140.5096972798095,139.2511673360761,140.0353240966797,250100.0
2024-03-08,140.09344450787563,140.44196032011527,138.40894895338388,138.52511596679688,185200.0
2024-03-11,138.23467236717613,138.80586127112414,137.4505155467045,138.186279296875,226700.0
2024-03-12,138.24437886769354,138.29278671562085,136.9664825880185,137.8668212890625,242200.0
2024-03-13,138.43798895737592,138.43798895737592,136.4340193693208,136.6566925048828,336800.0
2024-03-14,136.85031074719467,137.10201086674357,135.88221291077477,136.43402099609375,235200.0
2024-03-15,135.5724352312238,137.86683749913811,135.2820176535157,136.50181579589844,599500.0
2024-03-18,136.43404366008966,136.79224996402957,134.49784766561507,134.81732177734375,299700.0
2024-03-19,134.44943456936542,135.84349784138894,134.44943456936542,135.059326171875,253000.0
2024-03-20,135.1754889932736,135.6014543524043,134.7011157938783,135.504638671875,220000.0
2024-03-21,135.83380611845956,137.08266060945118,134.85603261400937,136.6373291015625,255800.0
2024-03-22,137.4795668432542,137.90553224987627,136.5502012033519,137.07296752929688,276000.0
2024-03-25,136.69544518551805,139.45453060705893,136.66640342503902,138.39930725097656,316300.0
2024-03-26,138.27343080301986,139.7062116207552,138.07012373555634,138.63162231445312,314200.0
2024-03-27,139.08660656444317,140.5193871456138,139.08660656444317,140.04502868652344,218200.0
2024-03-28,140.1999296948087,140.71302034415112,139.06724227584522,139.29959106445312,247800.0
2024-04-01,139.2028031090346,139.2028031090346,137.5860812427115,137.7506561279297,204400.0
2024-04-02,137.3149751577352,137.3149751577352,135.9112364375765,136.14358520507812,202600.0
2024-04-03,136.18232831953642,136.6857433581489,135.40784705367142,136.38563537597656,258700.0
2024-04-04,137.3053243590496,138.1959726377349,136.47275958975655,137.22787475585938,403600.0
2024-04-05,136.86970117154823,138.2056663783431,136.45341134644306,137.20852661132812,288300.0
2024-04-08,137.1504324507475,137.83778848313548,135.91126827776824,136.02743530273438,312500.0
2024-04-09,135.9403078901939,136.59862215595857,134.91412646050384,135.8338165283203,242600.0
2024-04-10,134.5462509693493,135.74669776324401,134.0331602299272,134.95285034179688,200700.0
2024-04-11,134.8173252418579,135.5724405173476,134.03316820746505,134.6914825439453,265300.0
2024-04-12,133.76206933999157,134.5171844314302,131.62258150491544,132.82301330566406,299200.0
2024-04-15,134.18803080372464,135.349745158721,133.43291573437705,133.79110717773438,319600.0
2024-04-16,133.39420463004214,134.94316719612974,132.97792961895718,134.16868591308594,281700.0
2024-04-17,134.44943883100882,135.03028869809586,133.93634813434798,133.9847412109375,565400.0
2024-04-18,133.9750570093757,134.99156267697953,133.81048215225894,134.67208862304688,246600.0
2024-04-19,134.62367866886507,135.4562433737092,134.34293680453402,134.89474487304688,276600.0
2024-04-22,135.09808150736472,136.64702947458002,134.80764914726078,135.84352111816406,298800.0
2024-04-23,135.31101172472623,136.65666685787943,135.0689873139289,135.6788787841797,417200.0
2024-04-24,135.88278612266342,136.8051743681088,135.58179767770815,135.9410400390625,559200.0
2024-04-25,135.7759941871754,137.14502060339382,134.88273282197122,136.10610961914062,694400.0
2024-04-26,137.87324676430742,144.194050138077,137.7761470024205,139.1645965576172,489500.0
2024-04-29,140.68894676515575,143.71828418532212,140.17435067690909,142.12594604492188,676700.0
2024-04-30,141.50454336149315,141.85408171786466,139.8733594266455,140.18406677246094,585100.0
2024-05-01,140.77631826001885,142.93180199367572,140.3782300895373,141.1549835205078,359600.0
2024-05-02,141.52399808255342,142.4658096637306,141.06765577763883,141.67935180664062,356500.0
2024-05-03,142.83471091986533,142.85413383103565,140.6306771852546,142.54342651367188,303300.0
2024-05-06,143.46584874866832,144.74749451317692,142.88329461371845,144.70864868164062,260200.0
2024-05-07,144.00958866873592,146.00971937546657,144.00958866873592,145.368896484375,392900.0
2024-05-08,145.36887962927,146.4854527186998,145.13584910988936,146.40777587890625,223500.0
2024-05-09,146.6116820419674,147.3204628465896,144.3105630316223,144.7474822998047,299100.0
2024-05-10,144.62126017257594,144.6698100517693,143.78625262261644,144.1746368408203,186300.0
2024-05-13,144.21345462568132,145.1358429843686,142.59198955369928,143.5726318359375,167500.0
2024-05-14,143.99016035248064,143.9998644024627,143.184279743667,143.60177612304688,137600.0
2024-05-15,143.66006275911806,144.02900930384612,142.50464360760014,142.99981689453125,211100.0
2024-05-16,143.0871700529018,143.60176615776547,142.17448569624776,143.25222778320312,235500.0
2024-05-17,143.5532250739488,143.86391760755848,142.85414835414977,143.37844848632812,169500.0
2024-05-20,143.30079134207162,144.09696792166733,142.7667722722628,143.8639373779297,163400.0
2024-05-21,143.64059411861123,144.35907887698275,142.8152907544195,144.27169799804688,280400.0
2024-05-22,143.7668346921676,144.50474243328088,143.18426581237048,144.4658966064453,283300.0
2024-05-23,144.33967093846064,144.62123648711966,143.27163303249756,143.42698669433594,171700.0
2024-05-24,144.16492024192416,144.50475458627656,143.0774740445457,143.7862548828125,162300.0
2024-05-28,143.32989260159044,143.4852462695525,141.5822156907114,142.44635009765625,318400.0
2024-05-29,141.41716447863772,142.4366527072403,140.31029535438608,140.63070678710938,229700.0
2024-05-30,140.91227152936236,142.7084983843772,140.78604481723752,141.89291381835938,328100.0
2024-05-31,141.8443808876884,143.5338189608347,141.6793231449918,143.39788818359375,358900.0
2024-06-03,144.18433298516325,144.18433298516325,142.0288488421779,143.85421752929688,266200.0
2024-06-04,143.3590315880983,144.07753125118836,142.43664318212836,143.8833465576172,287900.0
2024-06-05,143.4270158524189,143.89306211733856,142.8056158940781,143.62120056152344,229200.0
2024-06-06,143.70858196047192,143.70858196047192,141.17443223714181,141.71817016601562,197600.0
2024-06-07,141.53366068244839,142.07738368524713,141.2229533577973,141.32005310058594,179100.0
2024-06-10,140.62099421122554,141.57250958640344,139.80540960393014,141.35890197753906,125800.0
2024-06-11,140.6986648827164,141.50454540530546,140.15494183502784,141.27151489257812,147700.0
2024-06-12,141.9900224631697,142.05798044025738,139.88308812796836,141.59193420410156,221300.0
2024-06-13,141.6501881317032,142.27158805169188,140.805476550794,141.59193420410156,232400.0
2024-06-14,140.8734351702916,141.15501557544053,139.50440860403918,140.54331970214844,141500.0
2024-06-17,140.65981624752195,142.4172120684738,140.3685466316063,142.077392578125,303800.0
2024-06-18,142.22305259413477,143.39789457614634,142.2133485436648,142.4269561767578,219900.0
2024-06-20,142.3977978909361,143.24250937170754,141.436563753432,141.57249450683594,199900.0
2024-06-21,141.63076047927734,142.86385622851674,141.0870374193948,142.58229064941406,444100.0
2024-06-24,142.9415237902204,143.92216604419272,142.4075048141597,142.4560546875,182900.0
2024-06-25,142.52403514640127,142.53375401180762,140.30059282386082,140.65013122558594,194500.0
2024-06-26,140.05782362492792,140.58212369028553,138.80531997053257,139.5335235595703,192400.0
2024-06-27,139.68887329101562,139.69859215477817,138.1353810691403,139.68887329101562,377300.0
2024-06-28,139.60152272147332,140.1258377569006,136.01875763564942,136.71783447265625,435100.0
2024-07-01,137.27128572038956,137.36837067824663,134.36817435964326,134.51380920410156,306400.0
2024-07-02,134.4555328904598,136.41683242305885,133.75645612270853,136.31973266601562,259400.0
2024-07-03,136.78579030057608,137.2906675416146,136.4848018027494,137.11590576171875,143300.0
2024-07-05,136.89258674062816,137.32950598220694,135.66919508579755,136.80519104003906,207000.0
2024-07-08,137.53339169445843,138.35869510013967,137.38775688891062,137.3974609375,249300.0
2024-07-09,136.76637614080624,137.1644644187289,135.6886339831031,135.97019958496094,238400.0
2024-07-10,136.65955303485114,137.51398340041877,136.48479126844396,137.18385314941406,142000.0
2024-07-11,137.09646742302462,139.13544351779265,136.6595482071003,137.96060180664062,244500.0
2024-07-12,139.24223958094584,141.26179265181048,139.24223958094584,140.387939453125,263900.0
2024-07-15,140.552991887278,141.4559720105371,138.9800769300815,139.2616424560547,319900.0
2024-07-16,139.66948303288666,141.07734063154754,139.66948303288666,140.3588409423828,178800.0
2024-07-17,140.14523913079555,141.5336886876332,140.14523913079555,140.65013122558594,242300.0
2024-07-18,140.40738917518402,142.97066571318356,140.3976851256369,142.0288543701172,434200.0
2024-07-19,142.32983440463798,142.32983440463798,140.45593069491323,141.69873046875,251200.0
2024-07-22,141.74729152284237,143.2716569904321,141.0287918281976,142.91241455078125,235700.0
2024-07-23,143.57265645199828,144.1940564353192,141.43659493529168,141.79583740234375,234500.0
2024-07-24,141.8249684790197,142.36869157146538,139.718019272778,139.9510498046875,250600.0
2024-07-25,139.11343221874438,140.30168787194964,137.54532532307127,137.8083038330078,558100.0
2024-07-26,139.40563543189464,147.3532937123029,138.64593291142725,142.84378051757812,562800.0
2024-07-29,142.76584597383152,144.4897929937424,141.39253199421196,143.9541015625,390900.0
2024-07-30,143.5450338076538,144.05149220142636,141.62629393482098,141.9574432373047,411000.0
2024-07-31,142.68793548619507,144.97679227316166,141.62630185383244,143.1554412841797,280600.0
2024-08-01,143.05802593063436,145.64879851592252,141.64574463285857,143.20411682128906,335300.0
2024-08-02,142.76584278576115,143.17491218000953,140.00948044813856,141.8990020751953,213500.0
2024-08-05,139.69780574748174,139.69780574748174,135.85059153457982,137.0193634033203,448500.0
2024-08-06,137.65246713764915,142.28860227483594,137.43819054803106,141.15878295898438,476000.0
2024-08-07,142.21069714802718,143.4281711438002,139.73679652778338,139.86341857910156,353600.0
2024-08-08,140.70101663202263,142.356778003838,140.70101663202263,141.7723846435547,268600.0
2024-08-09,141.62630065454624,141.62630065454624,139.73677887394297,140.20428466796875,263200.0
2024-08-12,140.22376060481798,140.42828787630694,139.05498875394557,139.5614471435547,221100.0
2024-08-13,139.77571975776996,141.5191504756012,139.37639966606926,140.61334228515625,212000.0
2024-08-14,140.37958921087778,141.0418877556547,139.75624328448924,140.1555633544922,115700.0
2024-08-15,141.22695417806543,143.5060614579835,141.22695417806543,143.1846466064453,277500.0
2024-08-16,142.30807861002003,143.01907915033655,141.8210890883735,142.90220642089844,250600.0
2024-08-19,142.51262572122243,143.88592492526362,142.12302517326572,143.1457061767578,191200.0
2024-08-20,143.15541107691823,144.45080476580247,143.15541107691823,144.25601196289062,387200.0
2024-08-21,144.31447092085256,145.6780504782827,143.6229541329459,145.4442901611328,267300.0
2024-08-22,145.67805355296156,146.48644308563473,144.8014634914536,145.11314392089844,200400.0
2024-08-23,145.76568825881577,146.6130451606969,145.5514117081752,146.525390625,221400.0
2024-08-26,146.75915922191393,148.6973829226023,146.23321706296485,146.25270080566406,235500.0
2024-08-27,146.10658758715397,147.59677430031587,145.94101293699603,147.265625,208300.0
2024-08-28,147.00262825791697,148.01557463659083,147.00262825791697,147.5967559814453,249000.0
2024-08-29,148.5805139173331,148.93114698600922,147.27538549682706,148.31753540039062,187100.0
2024-08-30,148.23961278387767,149.447352191514,147.6941868777649,149.203857421875,178500.0
2024-09-03,148.15194689459446,148.41492538696468,145.83387210929124,146.13580322265625,362400.0
2024-09-04,145.7072750829975,146.97343598691867,145.7072750829975,146.807861328125,175800.0
2024-09-05,147.14874398418533,147.8110425475091,146.0481429967178,146.79811096191406,200600.0
2024-09-06,146.46697415286368,149.13566723576417,146.46697415286368,148.41493225097656,319100.0
2024-09-09,148.599998351621,149.07723859888472,147.49939721337483,147.95716857910156,241500.0
2024-09-10,147.9181836882304,148.8142425709734,147.4993798583381,147.5675506591797,158100.0
2024-09-11,146.8663066160262,146.95397603273526,144.76252298810905,146.91500854492188,178000.0
2024-09-12,146.9637098345748,148.05456170073086,146.06765082141203,148.00587463378906,200400.0
2024-09-13,148.229880848657,149.02853597846607,147.94741858852652,148.31753540039062,138600.0
2024-09-16,149.0577202574082,149.18434226671613,148.11297442293682,149.009033203125,182900.0
2024-09-17,149.99274960728783,151.5219036038018,147.9181698082619,149.04798889160156,259900.0
2024-09-18,149.75900813476628,151.4440025327287,148.73634205746214,149.08697509765625,214200.0
2024-09-19,150.98625109226774,154.67762550954814,150.98625109226774,152.81732177734375,412400.0
2024-09-20,152.2426587848195,152.2426587848195,150.4602753884125,151.8530731201172,663300.0
2024-09-23,152.1063064527266,152.82705629994214,150.71352354488388,151.9017791748047,315800.0
2024-09-24,152.1160493204721,152.99263943106746,151.96995839957702,152.55435180664062,246200.0
2024-09-25,153.2069113857245,153.76207173006424,151.81411358113382,153.0510711669922,284100.0
2024-09-26,153.8302359516064,154.9210876071616,153.59647565609922,154.2587890625,371600.0
2024-09-27,154.5509862737545,157.34631621260434,154.14191686210978,155.72950744628906,354300.0
2024-09-30,155.14510798319304,156.24570900619995,154.7944749495995,156.02169799804688,289800.0
2024-10-01,156.36259442762125,156.36259442762125,154.9113751149142,155.80743408203125,192200.0
2024-10-02,155.70028846125726,155.94378321896212,153.84973424739667,154.61917114257812,186900.0
2024-10-03,153.8789526282023,156.2846820263738,152.564074990201,154.80422973632812,367000.0
2024-10-04,155.77820432469008,157.26839101232096,155.18407653760102,156.40155029296875,350500.0
2024-10-07,155.2424969824321,155.4859917085393,153.89840133856404,154.5607147216797,223300.0
2024-10-08,154.16140851662,154.88215839036292,153.0121203289736,154.541259765625,205900.0
2024-10-09,154.2295709430776,155.88533216711275,154.00554508664416,155.54443359375,152600.0
2024-10-10,153.93736604144004,155.23275974437976,153.93736604144004,155.07691955566406,168500.0
2024-10-11,156.75220088173344,157.70669625153667,156.1775567716702,157.34632873535156,194400.0
2024-10-14,160.696818031185,163.39472945404907,159.2066311881111,162.83956909179688,469700.0
2024-10-15,162.96617430440529,165.2452816100452,162.15776994657773,164.290771484375,397300.0
2024-10-16,164.31023937535176,164.79722883103554,161.60257919068917,161.71945190429688,330000.0
2024-10-17,162.63503769290986,163.94018107601627,162.18701559715464,163.5213623046875,238200.0
2024-10-18,164.6998826021437,164.6998826021437,163.41422297183175,164.2421112060547,171500.0
2024-10-21,164.0862524476999,164.1057361900711,161.97271968352462,162.00193786621094,217900.0
2024-10-22,161.40779833915946,162.04087873375656,160.52147389733162,161.49545288085938,228500.0
2024-10-23,162.1772771808473,163.60902784621874,161.83639336540975,163.28761291503906,318100.0
2024-10-24,164.38140383544402,164.39116447584829,162.26216763017436,162.65281677246094,547300.0
2024-10-25,164.96734120598276,165.87558734575057,160.75819577884172,164.95758056640625,518900.0
2024-10-28,165.92441114185215,167.3990873642211,164.8110872205768,165.1431427001953,350000.0
2024-10-29,165.0747671080742,165.52400985615543,163.71729312603756,164.7524871826172,338100.0
2024-10-30,164.41068693257148,166.2173887714383,164.18605810635694,165.07476806640625,290300.0
2024-10-31,165.13338430997027,166.2955413549906,163.93216979950657,163.9810028076172,329900.0
2024-11-01,164.16653293752452,166.98890749293048,163.69775401702358,165.4458770751953,316300.0
2024-11-04,165.6607063917498,166.57871301776453,164.24462409746818,164.32275390625,191800.0
2024-11-05,163.81495853194275,166.37364684373878,163.81495853194275,166.32481384277344,206200.0
2024-11-06,171.05154898002016,171.05154898002016,168.1119872286225,169.10812377929688,264100.0
2024-11-07,170.12378096512896,171.35430696476374,169.47922114643825,170.62185668945312,412300.0
2024-11-08,170.61208381104976,173.67860841546667,170.4070060757364,171.64727783203125,309200.0
2024-11-11,172.19418764538844,173.86416596467407,171.78400236870633,172.0281524658203,189100.0
2024-11-12,172.51645146428592,173.09265701480297,170.85623379576612,171.58868408203125,179800.0
2024-11-13,171.39334106445312,172.26251467663073,170.95387393950705,171.39334106445312,168400.0
2024-11-14,171.05155682058597,171.67658049046,169.8405818424337,170.02613830566406,198200.0
2024-11-15,168.92259010604147,169.6940979462343,162.28170370883174,162.59422302246094,620500.0
2024-11-18,162.49655239968402,163.8930988274997,160.4847578059515,162.78953552246094,384400.0
2024-11-19,162.52584959099735,163.74660018722383,162.31099629392224,162.99461364746094,287600.0
2024-11-20,163.09226951003035,164.9868767017905,161.773852987427,164.7817840576172,221800.0
2024-11-21,164.7427501806107,166.24670848012713,163.81498263273267,165.9049072265625,205100.0
2024-11-22,166.19783911675128,168.04362806955587,166.19783911675128,167.49671936035156,241600.0
2024-11-25,168.02409483029683,169.94799873062775,167.7213511031337,168.46356201171875,270100.0
2024-11-26,168.81513216055757,168.81513216055757,167.1549145944536,168.01431274414062,140300.0
2024-11-27,168.62958510670097,169.81127811822287,167.50650063518984,167.71157836914062,167200.0
2024-11-29,168.55145899910121,169.43040829774364,168.06315880043525,168.91281127929688,117300.0
2024-12-02,168.9323215272417,169.0592843391612,166.8423974094864,168.71746826171875,170900.0
2024-12-03,169.39133917889114,169.39133917889114,167.0865616010066,168.36590576171875,160100.0
2024-12-04,167.86785056164098,168.84445101051938,167.02797357953594,168.5514678955078,173400.0
2024-12-05,167.98503908384095,168.40498502885572,166.5396745813458,167.09634399414062,245000.0
2024-12-06,167.58463897320985,168.61005749857284,166.85218865409922,167.14515686035156,209200.0
2024-12-09,167.54556559711838,169.4108759749143,166.24668525088177,166.7935791015625,301700.0
2024-12-10,166.72522539571543,167.36000970992765,164.25442751782737,166.91078186035156,287000.0
2024-12-11,167.8580993317844,170.02615364197325,167.73113649775587,168.2780303955078,418600.0
2024-12-12,167.65298456324717,168.5612306607672,166.78381082569527,167.62368774414062,178300.0
2024-12-13,166.91076951474722,166.99865996989303,165.8462787089003,166.21737670898438,153200.0
2024-12-16,166.158796503823,166.9303042864774,163.66846242787886,163.70753479003906,236100.0
2024-12-17,162.9946031274387,163.0043786686916,159.02960783108298,159.2737579345703,511900.0
2024-12-18,159.8596998530706,160.57261387443967,154.21495151029833,154.5079345703125,468600.0
2024-12-19,154.80093483209816,157.78934478191135,154.5274878931726,155.1525115966797,404700.0
2024-12-20,155.00602554523715,156.04121964416362,153.78527497542004,154.47865295410156,730200.0
2024-12-23,153.49226783435589,155.18178218605982,153.2871901156991,154.81068420410156,194900.0
2024-12-24,155.06460748481138,155.6896311333145,154.2247305600973,155.62127685546875,100500.0
2024-12-26,154.71301920600163,155.8947121369805,154.71301920600163,155.13296508789062,164500.0
2024-12-27,154.1270910423129,155.84590247939389,153.92199838988887,154.44935607910156,145000.0
2024-12-30,153.32624728896786,153.80478680118333,151.37304668656063,153.06256103515625,221700.0
2024-12-31,153.59971586271843,154.54701948074276,152.52544941905987,153.42393493652344,317100.0
2025-01-02,153.96104492700826,154.4102876614351,149.8593262852289,150.55271911621094,239400.0
2025-01-03,150.43551553521377,152.07621191768425,149.29289488218893,151.86135864257812,250700.0
2025-01-06,150.39648145810642,151.02150520056398,147.89638648827628,149.3417510986328,369000.0
2025-01-07,152.27152292122494,152.408246372483,149.02921754778856,149.83978271484375,361200.0
2025-01-08,149.3124422881475,150.6503801368408,148.5311589473614,150.54295349121094,228600.0
2025-01-10,149.14641510020002,150.6894455288929,149.00969163951783,149.8593292236328,350800.0
2025-01-13,149.351489060231,151.08007590647148,149.351489060231,150.28903198242188,349300.0
2025-01-14,151.18750459843608,151.81252825447513,149.8886242863141,150.9921875,196900.0
2025-01-15,152.4668462198905,153.24812950251066,150.5624784634495,151.91995239257812,206100.0
2025-01-16,152.24223989964935,153.49228725350105,151.67580986403843,152.7500762939453,346300.0
2025-01-17,153.29694351217492,154.25400759141576,152.03712083584668,152.43753051757812,231900.0
2025-01-21,153.0528143054371,156.50997312910235,153.0528143054371,156.0900421142578,270900.0
2025-01-22,155.61149546068765,156.98850552412839,154.63489511528093,155.3478240966797,280000.0
2025-01-23,154.7521036088612,156.070505187951,154.03917459835165,155.88494873046875,149800.0
2025-01-24,155.91424200320077,156.71506145375167,153.54111027377883,154.59584045410156,329600.0
2025-01-27,154.54701307242723,155.201333551255,152.98444647403235,154.75210571289062,317000.0
2025-01-28,153.88292658532947,156.59787440646915,153.88292658532947,154.71302795410156,204300.0
2025-01-29,155.06462155953,155.10369392333624,152.95516096621085,153.43370056152344,265800.0
2025-01-30,154.1270963205914,154.96695843542625,152.9161063496536,154.42984008789062,274200.0
2025-01-31,154.205198107046,155.66033807623802,153.0918742405619,153.47274780273438,834100.0
2025-02-03,150.96288932286944,153.0821103704106,150.53318276913035,152.3301239013672,364600.0
2025-02-04,152.4375754807049,154.75212890535818,152.4375754807049,154.00990295410156,302400.0
2025-02-05,155.01864663986422,156.3702165851502,154.52894911700784,155.05783081054688,262600.0
2025-02-06,156.54651300778121,156.54651300778121,152.16861560867,153.2263641357422,446600.0
2025-02-07,154.37223282693162,154.64646222731156,139.11325716004725,140.22976684570312,1221500.0
2025-02-10,141.28754664505917,141.6205523719065,137.99677816426612,140.32774353027344,621900.0
2025-02-11,139.33854663703144,140.1220657147679,137.3699528993658,139.35812377929688,377300.0
2025-02-12,138.06531924654766,140.53339891858562,137.0467400415367,138.7802734375,423500.0
2025-02-13,139.8086702399115,140.81744613961186,138.54525695828178,139.82826232910156,665900.0
2025-02-14,140.72928446288225,142.3158997444021,139.7792700193002,141.80661010742188,512800.0
2025-02-18,141.806629148029,144.25511722944964,140.93496798881864,143.87315368652344,489600.0
2025-02-19,143.12878909814165,144.45097836650277,142.60971092774975,144.01023864746094,331000.0
2025-02-20,143.94171731007287,144.38244217212826,142.91334933568692,143.65768432617188,283100.0
2025-02-21,144.00046152927248,144.35304436591701,142.20816668836144,143.32467651367188,451900.0
2025-02-24,143.1679580885088,144.25508716788633,141.3854669077713,142.60971069335938,353300.0
2025-02-25,142.8741632870377,145.27367831527678,142.7174564829414,144.6664581298828,336700.0
2025-02-26,143.62828832707837,146.10615678438293,143.59890766903789,143.61849975585938,735600.0
2025-02-27,143.21693102979327,144.14735331926948,142.3648621360305,142.62930297851562,262800.0
2025-02-28,143.14838730085012,143.9221028321513,141.64991403633834,143.72622680664062,348700.0
2025-03-03,143.9417092483485,145.7731734330009,142.6880846270143,143.5695343017578,394100.0
2025-03-04,142.54117057614394,144.90151659055175,142.14941847460233,142.9329376220703,490100.0
2025-03-05,143.0406700510276,145.78297956351986,143.0406700510276,145.3814239501953,445100.0
2025-03-06,144.51955819613613,148.3783778054115,144.0298605796166,148.03558349609375,471700.0
2025-03-07,147.40875736971992,150.20003950079644,146.10616003817648,149.63198852539062,480200.0
2025-03-10,148.93662196596816,150.82684736023063,147.14432711634848,147.467529296875,391100.0
2025-03-11,147.24225796213827,147.45772608292995,144.23552273099082,144.84274291992188,304000.0
2025-03-12,145.18552675241813,145.18552675241813,142.56074026251753,143.02105712890625,299700.0
2025-03-13,143.39323247450463,144.16694798641166,140.79782663230102,141.7772216796875,238400.0
2025-03-14,142.23756435683154,143.86336401714982,141.561779260411,143.6381072998047,223600.0
2025-03-17,143.49116498279625,144.9504690034165,142.85456417100727,144.79376220703125,225200.0
2025-03-18,144.35304428256728,144.49015899982857,142.7762175618708,143.28550720214844,219900.0
2025-03-19,143.32468002289772,144.42161273286254,142.4726110403041,143.9514923095703,279600.0
2025-03-20,143.1190209381293,144.38243413158088,140.76846356409283,142.2081756591797,332800.0
2025-03-21,141.0329025919921,142.4628260965788,139.42669513246977,141.8360137939453,601900.0
2025-03-24,142.7468386396778,145.1267616063011,141.92415032610805,144.94068908691406,463800.0
2025-03-25,145.43039772394542,146.15514060303397,142.92313347424803,144.17677307128906,325200.0
2025-03-26,144.02005068183723,145.63604659931275,143.28550436582418,145.49893188476562,630400.0
2025-03-27,145.2246994062801,146.80152606265366,144.0004555719647,146.2726593017578,312700.0
2025-03-28,146.2138690740067,146.90924608098447,142.7566060117847,143.90249633789062,239800.0
2025-03-31,143.5597480313838,146.01802456611082,143.08964252694352,145.32266235351562,372500.0
2025-04-01,145.8123486528671,146.93864705079392,144.34325598893645,146.02781677246094,240000.0
2025-04-02,144.950476293581,148.0159877703709,144.950476293581,147.4283447265625,247600.0
2025-04-03,143.73602588355362,146.9582442746014,143.44221929600363,145.60667419433594,352900.0
2025-04-04,142.22773923506705,144.91128684220502,137.15446550169227,137.2915802001953,531600.0
2025-04-07,133.5307294902565,139.19163219073434,128.15385974857273,131.87554931640625,629900.0
2025-04-08,134.5493112573588,136.43953673434598,128.57499483049722,130.9059600830078,473800.0
2025-04-09,130.43582718258966,141.44423305934052,128.6141667138947,140.7880401611328,491800.0
2025-04-10,137.11532993446937,140.4158870228316,134.7354067381973,137.8596649169922,309000.0
2025-04-11,137.96737957378522,141.7282680233526,136.86067330008663,141.140625,203000.0
2025-04-14,142.79579899814664,143.38342705213157,140.82720541468416,142.78599548339844,249300.0
2025-04-15,143.0896488919898,143.52057023933776,140.807656215774,140.97415161132812,250700.0
2025-04-16,141.09164958012386,142.8153944455794,139.63236050898016,142.0122833251953,307700.0
2025-04-17,142.40403652449308,142.7566193457953,137.81068622127157,140.86639404296875,390600.0
2025-04-21,140.347331860725,141.08187824351555,138.19266546008294,139.6421661376953,291600.0
2025-04-22,141.52260661323547,143.79481065396374,140.63135339324026,143.01129150390625,217800.0
2025-04-23,144.823151790697,146.24328667195422,144.1865509396658,144.99945068359375,537000.0
2025-04-24,144.88190918887037,148.86805439769142,142.4628170537404,148.3391876220703,424500.0
2025-04-25,147.74175781185858,149.84745131334506,144.52934305768525,145.98863220214844,220500.0
2025-04-28,146.71339348881767,147.91804531450325,145.22470870652703,146.61544799804688,235200.0
2025-04-29,146.67421273095528,148.84847116613122,145.939666366217,147.20309448242188,359900.0
2025-04-30,145.9984330116698,146.89947469973708,144.17675754933848,146.86029052734375,556200.0
2025-05-01,145.82884652255714,147.87212219802424,144.3651647328934,145.66184997558594,445300.0
2025-05-02,150.28867188742916,150.29848992197137,145.18047592473235,149.31614685058594,431600.0
2025-05-05,148.7562082163406,150.51461075676426,148.21593150363898,148.80532836914062,267600.0
2025-05-06,147.59705042912566,149.355437978684,146.78170385931236,148.25521850585938,312000.0
2025-05-07,149.19827245283236,150.44583737765655,147.9605105733144,148.7169189453125,318400.0
2025-05-08,149.10982924733253,151.84075642869666,148.5695526182724,150.65211486816406,302500.0
2025-05-09,151.1924328459138,151.5755460622504,150.23955882257493,150.61285400390625,231600.0
2025-05-12,153.03923920333585,153.82511675438303,150.98614553061785,152.77401733398438,352500.0
2025-05-13,153.55007024184005,153.55007024184005,150.494982150033,150.92721557617188,339400.0
2025-05-14,150.90754450151144,150.90754450151144,148.3043412429943,149.7876739501953,350100.0
2025-05-15,149.65996739529265,152.7346909024297,149.65996739529265,152.21405029296875,278100.0
2025-05-16,152.43998138798113,154.3751983205255,151.860402608422,154.2376708984375,278600.0
2025-05-19,153.59918681809296,155.54422220096674,153.55006665911085,155.288818359375,185400.0
2025-05-20,157.43029958325823,157.43029958325823,155.12180229520027,155.73085021972656,388100.0
2025-05-21,154.09034056579173,154.8663850260189,153.07852836340334,153.6875762939453,319800.0
2025-05-22,153.59916031317496,154.483263064821,152.81328287317552,153.884033203125,278900.0
2025-05-23,152.3810559407016,153.4223372220158,151.53624028030902,153.18658447265625,260500.0
2025-05-27,154.25733338201647,155.642440728808,153.9233403306864,155.3673858642578,352800.0
2025-05-28,155.36739421063615,156.03538034918074,154.4832763933447,154.6208038330078,364400.0
2025-05-29,155.04320652313712,155.8683710937722,154.05104543149486,155.5343780517578,232100.0
2025-05-30,155.44597065814978,155.9764293133438,153.77597547059216,155.60313415527344,335100.0
2025-06-02,154.75833131600515,156.2613301068848,152.51859016122646,154.13946533203125,349600.0
2025-06-03,153.4223415376803,154.66010346409962,153.24552697068694,153.5009307861328,397800.0
2025-06-04,153.72689030243944,153.75635939881812,147.63635056847724,147.75424194335938,831900.0
2025-06-05,148.90356481639972,150.6324832288513,146.41823804065308,149.79750061035156,482400.0
2025-06-06,151.6443086942385,151.75236704132885,149.52245886221365,150.60302734375,264700.0
2025-06-09,150.01363456854594,150.4753220758684,148.68746527135272,148.92323303222656,388400.0
2025-06-10,149.47331461964936,150.29847914298685,148.19626572056148,149.83677673339844,323500.0
2025-06-11,150.29849644880608,150.8780752886444,148.92322208489034,149.23756408691406,380800.0
2025-06-12,148.7365731786107,151.88988615274167,148.7365731786107,151.62466430664062,337200.0
2025-06-13,150.29848970697998,151.00577791651503,148.0685667411024,148.49098205566406,361200.0
2025-06-16,148.5695758002576,150.20025395390124,148.4516844355203,149.01162719726562,346200.0
2025-06-17,147.9998142251002,148.58921108822153,146.49683048956007,146.81117248535156,379700.0
2025-06-18,146.4869866848808,148.0685595503163,146.4869866848808,147.05674743652344,383200.0
2025-06-20,147.63634617447357,148.10788168123327,146.35931206442524,147.64617919921875,570500.0
2025-06-23,146.85046100186406,151.22188436993758,146.85046100186406,151.07452392578125,356500.0
2025-06-24,151.84077408220156,151.84077408220156,150.47530283808342,151.1531219482422,246600.0
2025-06-25,151.14331042765082,151.80147850793904,150.0725600428252,151.21206665039062,264700.0
2025-06-26,151.80147000378724,152.83293320202972,150.41636270870066,151.75234985351562,658200.0
2025-06-27,151.92917357890042,153.35356794604172,151.50675828997822,153.06869506835938,643100.0
2025-06-30,153.27497651207332,153.7366789194791,151.88005125606443,153.66790771484375,315500.0
2025-07-01,153.66793021902077,156.9784367941011,153.20624273336693,156.20237731933594,338300.0
2025-07-02,156.2122087454969,157.69554147577566,155.84873159459067,157.4892578125,293500.0
2025-07-03,157.76431481113727,158.51089020387988,156.99808835850575,158.196533203125,235100.0
2025-07-07,158.10811741535406,159.5030428051159,157.7151861749073,158.11795043945312,313900.0
2025-07-08,158.05901225349746,159.7093565965001,157.02756390215916,157.22402954101562,342700.0
2025-07-09,157.10613360189868,157.18472285303153,155.30845881868973,156.90966796875,252800.0
2025-07-10,156.37919368056006,157.52853325880866,155.5343780517578,155.5343780517578,361600.0
2025-07-11,155.7603190354981,155.7603190354981,153.86440405350666,155.11196899414062,292000.0
2025-07-14,154.36538707594116,156.13360757296107,153.92333569902758,154.77796936035156,276600.0
2025-07-15,154.95480896302266,155.21021277775083,151.34961151557988,151.43801879882812,254200.0
2025-07-16,151.2022489800424,152.8624112264187,150.83878682765217,152.2435302734375,261900.0
2025-07-17,152.00777788286257,153.6482890740105,151.78182817574609,153.27499389648438,397700.0
2025-07-18,154.08053795548372,154.43418210944483,152.18460777221878,153.61883544921875,243100.0
2025-07-21,153.65812006565358,153.90370586328876,152.49896229571195,152.7052459716797,205900.0
2025-07-22,153.35357548550758,156.54619042612177,152.48910879729814,156.3595428466797,449900.0
2025-07-23,157.24368095923748,158.99225063096037,156.33009400189493,158.80560302734375,450500.0
2025-07-24,158.559320268112,161.82979531304568,157.40675735764995,159.406494140625,431900.0
2025-07-25,159.63305506440543,160.65753702914088,158.3819926877325,158.5888671875,296300.0
2025-07-28,158.79573614749467,159.56410142477418,155.80108366056007,156.33302307128906,308500.0
2025-07-29,156.67779828906407,157.21959813532774,154.8750906357904,156.45123291015625,388200.0
2025-07-30,156.4315385130725,156.55958937255576,152.60940298667225,154.45150756835938,580700.0
2025-07-31,153.456563501654,155.0031544025075,152.86550639902828,154.79627990722656,679700.0
2025-08-01,154.6288158726098,155.76165777291718,138.9856590147076,139.24179077148438,1012300.0
2025-08-04,140.98538123418317,140.98538123418317,135.03547356824112,137.05490112304688,839000.0
2025-08-05,137.2617519084508,138.9659599251385,135.63636753338238,138.12863159179688,540800.0
2025-08-06,138.21731427393004,138.6605996470306,135.4984842918658,136.4737091064453,515300.0
2025-08-07,137.71491162131494,139.37970798596095,136.83818640949156,138.39462280273438,564000.0
2025-08-08,138.59162361799454,139.9313399406848,138.48326365692378,138.65072631835938,428700.0
2025-08-11,139.222090228796,139.5077583171329,137.12385398637957,137.7838592529297,349500.0
2025-08-12,138.12862654943748,138.98564573069308,137.15338694127408,137.399658203125,286100.0
2025-08-13,137.60654859738395,139.33044762978915,137.17310872138614,139.32058715820312,729900.0
2025-08-14,138.09910131689176,138.09910131689176,134.40503169053025,136.2766876220703,875800.0
2025-08-15,136.29638497225332,136.8775816161289,135.81368782683418,136.65101623535156,770500.0
2025-08-18,136.81847442171076,137.4883401327873,135.3014499206359,135.83338928222656,529500.0
2025-08-19,136.20773671589527,138.4241784468644,136.20773671589527,137.50804138183594,333100.0
2025-08-20,137.82326302031893,139.1432734762502,137.18294867232404,139.07431030273438,519200.0
2025-08-21,138.53254347475354,139.78359091939785,138.14836082862038,138.54238891601562,270400.0
2025-08-22,139.15312448451428,141.19225798353852,139.08417633944555,139.32058715820312,356500.0
2025-08-25,138.8674588166062,139.4979127296023,136.88744301904194,137.47848510742188,245800.0
2025-08-26,136.9957973337368,138.06953652648775,135.95159446141804,137.62625122070312,442900.0
2025-08-27,137.01548945470773,138.47342629437426,136.95638675089546,137.3602752685547,729100.0
2025-08-28,138.07938928608468,138.07938928608468,135.35069910089788,136.8184814453125,320800.0
2025-08-29,137.09429553325865,137.7838521169858,136.2865335440943,137.19281005859375,370700.0
2025-09-02,135.37040364310914,136.46384879424832,134.13904716800675,134.37547302246094,310600.0
2025-09-03,134.0504057475134,134.1489052560839,132.4348665011149,133.20323181152344,382300.0
2025-09-04,134.3163671782823,136.41458834161003,133.0258929963137,136.3948974609375,401800.0
2025-09-05,136.94654859153968,138.7197049562119,135.5772807659998,136.55250549316406,440800.0
2025-09-08,136.52295752982062,137.91193130257207,135.62652636886406,136.23728942871094,616100.0
2025-09-09,136.19786500295976,137.39967006705987,133.08500740809663,135.00592041015625,637100.0
2025-09-10,134.09967481585545,135.409840147903,132.8387667580311,134.21788024902344,685100.0
2025-09-11,134.71040519706986,136.2175843964125,133.84352538471833,135.05519104003906,477500.0
2025-09-12,134.58232620679007,135.00592063066784,133.20321303157323,133.2130584716797,261300.0
2025-09-15,133.9420357302436,134.13904976383114,132.62202517087903,132.8387451171875,298000.0
2025-09-16,132.77962562814162,133.40023410540573,132.0999294759084,133.19337463378906,474800.0
2025-09-17,133.4002434882413,135.02564317844585,132.18859283278562,132.6417236328125,377400.0
2025-09-18,132.88798558145595,133.48888814617573,132.07037810452255,132.49395751953125,254800.0
2025-09-19,132.65158018177598,133.0850200863436,131.35126046807318,132.4348602294922,877200.0
2025-09-22,132.11960688188879,132.92738386712793,130.69123651388878,130.74049377441406,402100.0
2025-09-23,131.0261738005905,131.95215627068484,130.00169183165633,130.0509490966797,319700.0
2025-09-24,130.0312388605038,131.32169799268698,129.38107905871175,129.5386962890625,353300.0
2025-09-25,129.53870141670419,130.54349251095573,128.32705085173455,128.8688507080078,388700.0
2025-09-26,129.37123644965243,130.4548211118124,129.00675974879576,130.31690979003906,274400.0
2025-09-29,130.4252615354418,130.70108416159653,129.40077964275358,130.29721069335938,540600.0
2025-09-30,129.74557555443596,131.76498814664785,129.74557555443596,131.66648864746094,310400.0
2025-10-01,131.34141139667054,132.35604794922318,130.33662028487404,132.1393280029297,310100.0
2025-10-02,131.66648573117217,132.38559368725765,130.97692912730892,131.19363403320312,398500.0
2025-10-03,130.49423360821496,131.58767874762543,130.45482178395852,131.23304748535156,402000.0
2025-10-06,130.90798617122863,131.2133602121639,129.45006412198484,129.91305541992188,447100.0
2025-10-07,130.13962210171118,130.53365021684988,127.873922861641,128.6422882080078,438800.0
2025-10-08,129.2234697553329,130.04109227782575,128.31719317203184,129.64706420898438,361300.0
2025-10-09,129.73572663806536,130.8587232410274,128.2580987377885,128.6619873046875,554200.0
2025-10-10,128.98704858156654,130.04108184834632,127.95270619480443,128.97718811035156,426000.0
2025-10-13,129.03630601031335,130.37602238234368,128.2186835523413,128.2777862548828,311400.0
2025-10-14,128.10048555861533,129.10527677147402,127.11540026045824,127.86407470703125,337400.0
2025-10-15,127.86406447402499,128.44526114593418,125.95299674355027,126.18942260742188,438300.0
2025-10-16,126.5243419047704,127.56852978216413,125.94313774513942,127.23360443115234,352700.0
2025-10-17,127.23360344544018,128.15958590499872,126.92822944945955,127.4109115600586,339700.0
2025-10-20,127.67688307805489,128.1497197271898,126.11060134384137,128.06106567382812,240500.0
2025-10-21,128.66197064438,129.80467301345007,127.19418837559832,128.62257385253906,311600.0
2025-10-22,128.70137488096933,130.13960588126338,128.04136960320932,128.12017822265625,357500.0
2025-10-23,128.27838836608,130.0482160538345,128.19928781482736,129.29678344726562,378600.0
2025-10-24,129.27699821696652,129.41542040316887,127.09188897025071,127.42807006835938,489300.0
2025-10-27,127.68513804202082,128.43657062662018,127.00290900843953,127.32919311523438,521700.0
2025-10-28,127.29953156353623,127.65547648827675,126.03395296154486,126.6568603515625,413500.0
2025-10-29,125.84608767724626,126.06361040803851,122.02957306455488,122.9095458984375,651100.0
2025-10-30,122.6425973459498,124.10591981246533,121.65386309537952,122.95899200439453,702600.0
2025-10-31,113.99117408852003,116.76951495369767,102.06704129042897,114.70306396484375,2758200.0
2025-11-03,114.78215353846566,114.78215353846566,107.07003104374891,111.84561920166016,1661000.0
2025-11-04,113.07164922422088,114.69317278774453,111.26226373964292,112.8936767578125,1029100.0
2025-11-05,113.04198468525121,114.73271928879292,111.49955417930168,114.26801300048828,896900.0
2025-11-06,113.72420198995826,115.64234871180304,112.517952627641,114.84147644042969,880300.0
2025-11-07,114.92057976181373,115.60280123250854,113.39792818360942,114.91069030761719,697200.0
2025-11-10,114.68328006091402,115.45449154553131,112.71570107535919,115.06888580322266,514000.0
2025-11-11,115.64235215314066,118.16362740289492,115.64235215314066,116.93759155273438,484800.0
2025-11-12,117.0067994446968,118.32181771681981,116.58165098825971,116.8288345336914,547500.0
2025-11-13,116.96726664292429,120.50692958090833,116.96726664292429,118.84585571289062,679400.0
2025-11-14,118.42069332802943,119.33033453666947,117.05624283023447,117.27376556396484,521200.0
2025-11-17,117.1551218108406,118.14385608312521,116.24548809076526,117.99554443359375,820200.0
2025-11-18,118.31193671929118,118.75686408712447,116.72995598156568,117.96587371826172,817400.0
2025-11-19,118.16362983624596,118.16362983624596,116.38390520642318,116.67063903808594,598900.0
2025-11-20,116.67063483535937,118.26249749040201,116.04773500908134,117.24410247802734,507400.0
2025-11-21,116.79916971414367,120.86286792776397,116.79916971414367,120.1509780883789,509100.0
2025-11-24,119.48852930748254,121.02107037008182,119.08315219875638,120.10154724121094,740000.0
2025-11-25,121.0309595133857,122.68214385066395,121.0309595133857,122.04935455322266,543600.0
2025-11-26,121.63407548431789,123.11717675407199,121.63407548431789,122.41517639160156,538000.0
2025-11-28,122.23721179455744,124.65961521692697,122.23721179455744,123.34459686279297,315700.0
2025-12-01,123.47312464549341,123.55222519221778,121.64396787729149,121.89115142822266,536800.0
2025-12-02,122.37563109798752,122.46462110038372,119.4390968008952,120.2300796508789,325400.0
2025-12-03,120.08176988930819,122.86011822072538,120.04222715811682,120.68489837646484,543100.0
2025-12-04,120.82332005860296,122.6821452414219,120.55636513524256,120.64534759521484,708000.0
2025-12-05,120.61568357957054,122.11856379579517,119.26112254625717,120.53659057617188,537000.0
2025-12-08,119.55773823925648,120.72444490270962,117.95599365521366,118.71731567382812,496600.0
2025-12-09,118.25260671307173,118.49979025868578,114.06037589162156,114.41632080078125,640300.0
2025-12-10,114.86124902547321,116.47289058274676,113.83296456280685,115.84998321533203,734700.0
2025-12-11,116.6310870053096,117.33308739219939,115.84010415999195,116.68052673339844,389700.0
2025-12-12,117.18477675810965,120.26963024864754,116.32458281214376,120.10154724121094,656400.0
2025-12-15,120.11143594513233,121.08039125301917,119.12270172858626,120.95185852050781,588600.0
2025-12-16,121.2880193092629,122.45472593627359,118.17350515259987,121.44622039794922,644800.0
2025-12-17,120.73433285185864,123.19627887906455,118.72720364799784,122.2372055053711,567300.0
2025-12-18,122.2767604710972,122.72169540087228,120.65523693661119,121.23859405517578,457100.0
2025-12-19,121.95047437935206,122.92932668285609,119.89391294648267,120.02244567871094,1300400.0
2025-12-22,120.02244905131522,122.30642273678362,119.70605439556444,121.35723876953125,527800.0
2025-12-23,121.48577799610219,121.64397155088497,119.95323691666961,120.81343841552734,311700.0
2025-12-24,121.1495961120519,121.78238537460243,120.38827412360435,121.36711883544922,198000.0
2025-12-26,120.99141254975284,122.08890816765887,120.34873378036154,121.86149597167969,306000.0
2025-12-29,121.90103810595791,122.90954365167185,120.9419647432383,121.82193756103516,400200.0
2025-12-30,121.41656795360201,122.89966931682952,121.04084411378047,121.35723876953125,289800.0
2025-12-31,120.15097596397585,121.94058998507745,119.98289296138277,120.58602142333984,314300.0
2026-01-02,120.36849451795845,121.61430167163682,119.41931062963688,121.15948486328125,295100.0
2026-01-05,120.3882753233874,123.17650539661395,120.3882753233874,121.61430358886719,435700.0
2026-01-06,120.84309994356978,121.4659997987374,118.75687009500949,119.20179748535156,777200.0
2026-01-07,119.31055741898699,120.57613602320409,116.28503309681528,119.0831527709961,478500.0
2026-01-08,118.56900865138992,121.98014631699301,118.17351344536358,121.06062316894531,330000.0
2026-01-09,120.70467850674399,123.5621198728979,120.09166055886544,122.4547348022461,429100.0
2026-01-12,122.60303947816963,123.88839694168902,121.59453392415777,123.72030639648438,477300.0
2026-01-13,123.64121411549613,124.02681984811237,121.15948917361368,122.10867309570312,351900.0
2026-01-14,122.71180688445504,125.72744932780128,122.71180688445504,125.42093658447266,611700.0
2026-01-15,125.70766789113175,125.78676843900955,123.11718152395939,123.7005386352539,381000.0
2026-01-16,122.60304567683241,123.78952374665012,121.85160554277793,123.30504608154297,363400.0
2026-01-20,123.49290649216461,124.1158063396922,122.0493554255934,122.4250717163086,275100.0
2026-01-21,122.90954323158518,124.2047901340779,122.50416614126715,123.6016616821289,421000.0
2026-01-22,123.64121667891544,124.98589581561515,122.66236437418617,123.0677490234375,369700.0
2026-01-23,122.93921055756546,124.85735737798285,122.4745118058816,124.58051300048828,429500.0
2026-01-26,124.99577817123766,125.55935637440064,123.69064930373163,124.92656707763672,315400.0
2026-01-27,123.54233481410213,124.87713201390274,122.77112334791536,123.33470153808594,303100.0
2026-01-28,122.80079414026893,123.66099567657822,121.86149959484645,122.30642700195312,347800.0
2026-01-29,122.88978028418853,123.86862507511535,121.20892754069328,122.4547348022461,386000.0
2026-01-30,121.52533188143772,123.60167232496788,121.27814831569736,123.54234313964844,512700.0
2026-02-02,122.80078342815366,124.49152553193812,122.80078342815366,123.42369079589844,489100.0
2026-02-03,122.51406220907022,126.48877049938638,122.29653947125486,123.22594451904297,658700.0
2026-02-04,124.77433039015442,129.44927260782487,123.77184577350829,128.26812744140625,589400.0
2026-02-05,126.71975064755804,128.1192596554473,121.05225107397254,123.05722045898438,2144200.0
2026-02-06,126.58078326238557,134.97782150042084,126.58078326238557,133.31031799316406,1045700.0
2026-02-09,132.5857587104382,138.531180271334,132.2582131007177,137.43936157226562,1043400.0
2026-02-10,136.78427392403074,139.88104683101494,136.78427392403074,139.126708984375,622100.0
2026-02-11,137.99519392074043,139.50388475135443,137.56840169460276,138.9678955078125,584300.0
2026-02-12,139.11678651599092,140.94308767923593,138.3525134196047,139.46417236328125,572700.0
2026-02-13,139.46418324151318,141.8661694437224,139.3649366253535,141.51878356933594,471900.0
2026-02-17,138.2234773285034,142.55102629654255,138.2234773285034,140.59568786621094,614700.0
2026-02-18,140.41703714664675,142.04482998774162,139.791721402891,140.66517639160156,582000.0
2026-02-19,140.5956812663536,142.25326464590432,139.98030082414553,142.09445190429688,525500.0
2026-02-20,142.0547550361601,144.0597244456509,140.94309602664507,143.97039794921875,664500.0
2026-02-23,142.42200863639354,145.15154037209857,142.06468751245615,144.63540649414062,513500.0
2026-02-24,144.98279666295065,145.8165408414096,142.77931908758302,143.06715393066406,429800.0
2026-02-25,141.35004724560304,142.59074350649368,139.38477346379526,141.61802673339844,348900.0
2026-02-26,142.45176871915783,142.84878541602816,139.95052112226952,140.73463439941406,331300.0
2026-02-27,140.47658357934912,142.9381205686862,139.9505296087492,142.64036560058594,344600.0
2026-03-02,141.93563886113196,142.2830398395081,140.56590547180699,141.60809326171875,335000.0
2026-03-03,139.5931967078321,140.26814325067423,135.90088396317486,138.71974182128906,347300.0
2026-03-04,138.302888395737,138.47162126788456,134.9976717766612,136.02000427246094,389000.0
2026-03-05,134.9877396254558,135.32520533966746,133.40957777498073,133.72718811035156,452300.0
2026-03-06,133.0026313554941,133.0026313554941,130.02496050425168,131.096923828125,398500.0
2026-03-09,129.99519404049997,132.98278521657096,126.5807954705799,132.75450134277344,545700.0
2026-03-10,132.3574660154593,133.1316591702968,130.42196798314936,131.14654541015625,503100.0
2026-03-11,130.8190202738326,132.28800044532838,129.0721101988683,131.03738403320312,563800.0
2026-03-12,130.29295237048808,131.8016279987067,127.68252279954663,127.90088653564453,620600.0
2026-03-13,129.18127925269795,129.18127925269795,126.10436183607526,127.69244384765625,660600.0
2026-03-16,128.5162697582332,130.43191254892886,125.06217580985977,128.0894775390625,370700.0
2026-03-17,129.00262050471235,130.04480827067758,127.2855013216824,128.53611755371094,276700.0
2026-03-18,123.45423058912087,125.63786042046195,120.51626292882625,123.29542541503906,910500.0
2026-03-19,122.0944332187195,123.8909588849741,120.54603921873606,123.04728698730469,518500.0
2026-03-20,123.33512999241371,123.33512999241371,119.41452545613383,120.15894317626953,1481500.0
2026-03-23,122.5907105268858,125.39964092902298,122.07457667427936,123.21601867675781,455200.0
2026-03-24,122.24332284607306,124.28798782763778,121.95548040949986,123.2259521484375,405000.0
2026-03-25,124.50634549167631,125.62793211237509,122.78921864642815,124.88351440429688,337200.0
2026-03-26,124.28798636131239,126.3922023143744,123.19617519683187,123.76193237304688,442100.0
2026-03-27,123.01751427118627,123.28550132328671,120.85373975633635,121.08202362060547,381400.0
2026-03-30,121.64777727824665,123.01751071469691,120.19864504103799,122.44182586669922,562000.0
2026-03-31,123.46415851677581,126.01502957768723,122.67010992701152,125.08202362060547,557800.0
2026-04-01,126.39219982096562,127.68252689973865,125.38972274230011,125.80659484863281,380200.0
2026-04-02,124.2085781211438,126.14406117582702,123.32520302720033,125.07210540771484,297500.0
2026-04-06,123.66266876079281,125.25076596450165,123.66266876079281,125.07210540771484,461100.0
2026-04-07,124.38723692091199,126.22346576757812,123.8711106378232,124.67507934570312,376900.0
2026-04-08,130.4021481364575,131.68254004802253,127.19617800807119,131.03738403320312,645200.0
2026-04-09,130.24332882387228,131.45424955756675,126.39220287440348,130.42198181152344,424100.0
2026-04-10,131.2656579543429,131.71230555728022,129.87608426848973,130.521240234375,407400.0
2026-04-13,129.82646170678544,131.43439923843442,126.63042687940094,131.126708984375,396300.0
2026-04-14,130.2532453341348,131.73216065356567,129.99518597737963,130.03488159179688,315500.0
2026-04-15,129.83638260646234,130.05474636457114,127.64284005257605,128.6850128173828,407100.0
2026-04-16,125.95547520842267,129.35994576168224,125.95547520842267,127.33512115478516,393800.0
2026-04-17,128.6849981610624,131.31528307681364,128.6849981610624,129.65771484375,401100.0
2026-04-20,129.59817078840075,131.00759986778516,128.69494031122633,129.945556640625,403600.0
2026-04-21,129.72718762909471,131.2656538985368,125.74703979492188,125.74703979492188,310200.0
2026-04-22,126.33265459801167,126.33265459801167,122.04480863207884,123.62297821044922,458900.0
2026-04-23,124.44679072012924,126.49146323670142,123.51379231359721,124.01007080078125,440800.0
2026-04-24,123.48401687155638,123.48401687155638,121.65770810014067,123.1564712524414,440900.0
2026-04-27,123.11676900112164,125.29047121573323,122.62049050993973,123.8016357421875,359700.0
2026-04-28,125.18128618602746,125.70734016180099,122.79914797388655,124.8338851928711,354300.0
2026-04-29,124.20857785922294,124.96292327213307,121.87607050853111,121.9852523803711,448400.0
2026-04-30,122.51130595027864,125.14158341040145,120.97283963229869,122.75944519042969,764800.0
2026-05-01,126.26316859263083,127.5237125861033,117.0224658192811,118.13412475585938,989400.0
2026-05-04,117.79666211505766,120.84381172589876,116.58574139374336,119.7023696899414,739600.0
2026-05-05,120.00014032911528,122.78922301811379,119.92073395333378,121.1217269897461,628600.0
2026-05-06,122.74597925597982,125.94466800462597,121.24129756714204,122.19791412353516,917000.0
2026-05-07,122.5068295340525,126.02439054042098,122.13813047351475,124.66918182373047,749700.0
2026-05-08,124.78875603965518,125.4165335007669,119.9658058031768,120.56369018554688,794900.0
2026-05-11,120.79288554794945,120.79288554794945,119.0191585502766,119.53732299804688,706100.0
2026-05-12,120.02559365453983,120.43415267647454,116.72725880994862,117.6340560913086,696600.0
2026-05-13,117.58423293808002,118.33159035082205,116.01976505817387,117.46465301513672,679500.0
2026-05-14,118.31166263789773,119.73662439056804,116.62761485678391,117.57426452636719,531000.0
2026-05-15,117.49455009110837,117.5045093824967,114.06666843041747,114.26596069335938,447000.0
2026-05-18,115.19268785792543,116.90662874327987,114.76420263658683,115.40194702148438,433100.0
2026-05-19,115.48166685737739,115.63113986049136,112.05378509001822,113.20970153808594,575800.0
2026-05-20,113.66807993613209,115.04321484042606,111.15696237122292,114.85388946533203,562600.0
2026-05-21,116.08951407739181,116.08951407739181,112.37265332877841,115.1030044555664,345600.0
2026-05-22,115.39198749681162,116.38846404651633,114.30582410432685,115.82047271728516,405800.0
2026-05-26,115.79056648170686,116.55785764558959,114.96349676302546,115.96993255615234,344500.0
2026-05-27,116.52796630163347,117.69384200162881,114.32575411191587,114.89374542236328,464000.0
2026-05-28,114.40547144179769,115.93007936247552,112.95061657623215,115.58131408691406,510100.0
2026-05-29,114.65458561775299,116.84683851674723,113.34920381323532,115.44180297851562,559600.0
2026-06-01,114.28589767180515,114.72434218302038,111.63526640610465,111.9840316772461,706800.0
2026-06-02,111.5555436879482,112.65167394505289,110.84804626905223,111.78473663330078,452400.0
2026-06-03,111.29646253608045,113.61824699938008,111.29646253608045,112.13349914550781,372600.0
2026-06-04,114.54497230632394,115.35212345281656,111.14699134502068,112.15343475341797,337600.0
2026-06-05,112.69152600064275,114.18624078068318,111.58544405772433,112.96057891845703,466300.0
2026-06-08,111.86445781905672,112.24311616501637,110.55906839000053,111.54558563232422,422200.0
2026-06-09,112.88085932662787,115.74074968498803,112.27300803930216,115.49163055419922,444400.0
2026-06-10,115.74074928767203,116.13934141606836,112.97054577921195,114.26596069335938,496800.0
2026-06-11,114.70441351982215,116.59772043978674,113.85740999319688,116.16923522949219,395200.0
2026-06-12,117.48458764205596,118.05257897569324,115.96993901734801,117.30522155761719,342600.0
2026-06-15,118.28175862932584,120.31457162088154,117.14577601676713,117.66394805908203,576100.0
2026-06-16,118.08246565966249,120.62348378448296,113.36912845320511,120.22489166259766,474700.0
2026-06-17,121.19147655168894,121.918900150595,119.03908362900873,119.56721496582031,680500.0
2026-06-18,120.03556323646836,122.1182031608104,118.69032142639777,119.89605712890625,750600.0
2026-06-22,119.13873446752551,120.58363003359555,118.46113010611298,119.57718658447266,468400.0
2026-06-23,119.93591657137902,122.14809569936509,118.6604278207416,120.1850357055664,514100.0
2026-06-24,121.55021059109053,124.60939323702425,121.34094382937874,123.84210205078125,404900.0
2026-06-25,125.28699706013307,127.68850153642342,124.45991971828299,125.98452758789062,363500.0
2026-06-26,125.49625757990486,126.67210019838983,124.3204149614199,125.53611755371094,727400.0
2026-06-29,125.16742108368359,125.60587320209562,123.48337326752176,124.84854888916016,446600.0
2026-06-30,124.16097333332938,125.86494727656601,123.5033027809896,124.75885772705078,329300.0
2026-07-01,124.67914609082169,126.39307933521575,123.66273577346423,124.80868530273438,405600.0
2026-07-02,125.82508774888942,127.77818082996899,124.96812492977865,126.5325927734375,468400.0
2026-07-06,125.98452783897301,126.6023460237271,123.74245564919634,125.56600952148438,431400.0
2026-07-07,126.18381913439254,128.26645901687073,125.71548155556971,127.2400894165039,392700.0
2026-07-08,126.00445175211411,126.26353777363065,122.60647080352626,123.77234649658203,537700.0
2026-07-09,124.02146439127118,125.03787467960888,123.34386006655016,124.0114974975586,302100.0
2026-07-10,124.55956853594634,126.53259544666133,123.93179104742975,125.08769989013672,385200.0
2026-07-13,125.64571994715708,126.72191640641843,123.96167980892794,124.449951171875,391600.0
2026-07-14,127.96751666781715,128.95403392567474,127.5091383673285,127.82801055908203,739900.0
2026-07-15,129.25298235497795,130.3092450844948,127.99741214779503,128.65509033203125,466800.0
2026-07-16,129.56187796196684,134.6040465870392,129.56187796196684,134.27520751953125,579300.0
2026-07-17,135.351401437915,136.16850424088722,130.24944675099272,132.1427459716797,530800.0
2026-07-20,131.9135687694055,131.9135687694055,129.2928306127641,129.4522705078125,422900.0
2026-07-21,130.07008242817932,130.59821378154385,127.46927803301472,128.45579528808594,328800.0
2026-07-22,129.35261865201468,130.02025611657908,128.02730301458666,128.71487426757812,309900.0
2026-07-23,128.39600579528673,129.36258923692642,127.71839385448645,128.54547119140625,382800.0
2026-07-24,129.13338680160044,132.26232242316664,129.13338680160044,131.8936309814453,335900.0
2026-07-27,132.72071171310446,133.60757521827134,132.19258036761323,132.9000701904297,411200.0
2026-07-28,134.9030016293852,137.54365843276426,134.3549364800917,137.32443237304688,593100.0
2026-07-29,135.52081464440568,136.11870667337666,134.0759266469227,135.75,580000.0
2026-07-30,136.39999389648438,136.39999389648438,133.11000061035156,133.8699951171875,627000.0
2026-07-31,137.4600067138672,139.57000732421875,132.1699981689453,133.9600067138672,886500.0
2026-08-03,137.22999572753906,138.4600067138672,134.52999877929688,136.77000427246094,642500.0
2026-08-04,137.8699951171875,137.8699951171875,135.33999633789062,136.17999267578125,511900.0
2026-08-05,136.8699951171875,136.8800048828125,134.8699951171875,136.75,454800.0
2026-08-06,138.6199951171875,138.69000244140625,134.6699981689453,135.77999877929688,545000.0
2026-08-07,135.05999755859375,137.67999267578125,134.7100067138672,135.4199981689453,686300.0
2026-08-10,134.38999938964844,134.52000427246094,132.92999267578125,133.67999267578125,446700.0
2026-08-11,132.8000030517578,135.0500030517578,132.8000030517578,134.75,343700.0
2026-08-12,133.50999450683594,134.47000122070312,132.27000427246094,133.14999389648438,315100.0
2026-08-13,134.44000244140625,134.44000244140625,132.08999633789062,132.57000732421875,490800.0
2026-08-14,132.08999633789062,132.75,129.55999755859375,132.10000610351562,381600.0
2026-08-17,133.16000366210938,133.16000366210938,130.22000122070312,131.74000549316406,374500.0
2026-08-18,132.75,133.47000122070312,131.22000122070312,131.72999572753906,500100.0
2026-08-19,133.0500030517578,134.3800048828125,132.2899932861328,132.92999267578125,390400.0
2026-08-20,131.4499969482422,133.8300018310547,130.89999389648438,132.9600067138672,420900.0
2026-08-21,134.0399932861328,135.1300048828125,133.10000610351562,134.8000030517578,400500.0
2026-08-24,135.36000061035156,136.33999633789062,134.38999938964844,134.75,282300.0
2026-08-25,135.58999633789062,135.58999633789062,133.22000122070312,134.72000122070312,280900.0
2026-08-26,135.0,136.63999938964844,134.44000244140625,135.24000549316406,281400.0
2026-08-27,133.77999877929688,134.69000244140625,132.25999450683594,132.86000061035156,295700.0
2026-08-31,132.2100067138672,132.44000244140625,130.8300018310547,131.6199951171875,389200.0
2026-09-01,131.64999389648438,132.07000732421875,130.77999877929688,130.9199981689453,418200.0
2026-09-02,131.27000427246094,132.25999450683594,129.69000244140625,130.5500030517578,163333.0
