Date,Open,High,Low,Close,Volume
2023-06-26,108.76448767860848,110.02472159161579,108.76448767860848,109.29359436035156,142300
2023-06-27,109.50524179545765,110.45762652448515,108.92803915179037,110.3614273071289,218300
2023-06-28,110.44800572673412,110.44800572673412,108.20653531126023,109.20701599121094,204800
2023-06-29,109.12043591353498,110.97710940421138,108.27387253843727,110.41914367675781,225900
2023-06-30,110.84243841224962,111.86216339802276,110.47687108562882,111.45812225341797,279800
2023-07-03,111.02519400939242,112.57401800551538,111.02519400939242,112.11225891113281,85700
2023-07-05,111.22724193095031,111.22724193095031,108.47590157241842,108.64906311035156,384200
2023-07-06,107.98526437103318,108.68753257139146,107.38881750688684,108.19690704345703,277700
2023-07-07,108.37006396940184,110.94824240327603,108.31233857239603,109.46675109863281,333400
2023-07-10,109.00499442816958,110.91939335472682,108.71639677529014,110.12092590332031,248000
2023-07-11,109.96699400151331,111.1695024910392,109.06271260826982,111.12140655517578,226700
2023-07-12,112.15076565467834,113.08391351776963,111.37153507833304,112.42974853515625,199400
2023-07-13,112.41049798976871,112.91074565761176,112.13151512491966,112.56442260742188,190200
2023-07-14,113.21857971119438,114.32488163094602,112.26618771937571,113.85350036621094,271600
2023-07-17,113.901608790538,114.99829597658342,112.70872239053817,114.72893524169922,234200
2023-07-18,114.48843831688549,115.7967682319705,114.19021119978753,114.55577850341797,189100
2023-07-19,114.23831743764053,114.87324550384733,113.81503206016934,114.58464050292969,247200
2023-07-20,115.22918005668726,115.65246542204783,114.34413551050594,114.79627990722656,175800
2023-07-21,115.10410420931842,115.48890836085613,114.35374015056067,115.28688049316406,184300
2023-07-24,115.46005155976455,115.912195924815,114.19982501511453,115.18107604980469,163400
2023-07-25,115.13298219212088,116.518274429924,114.76742222471391,115.97954559326172,250700
2023-07-26,115.98919341730534,116.22086084233958,114.69570161800037,115.7864761352539,306900
2023-07-27,115.89266517527358,116.58767485454675,114.61848321813113,115.00460052490234,407800
2023-07-28,118.23832650015827,122.5821299006814,117.64949922781021,119.48355102539062,513000
2023-07-31,119.23256614634282,119.62833841068284,116.63594217392378,117.24407196044922,746500
2023-08-01,117.0316964041143,118.24796323085536,116.55870661327171,118.19004821777344,365300
2023-08-02,117.22475920809303,118.08386627371769,115.81543742218545,117.99698638916016,329200
2023-08-03,117.30197759067782,118.46998437438043,116.52975040421455,116.61662292480469,195900
2023-08-04,116.43323498490459,117.89081698819571,116.29809502916336,116.4525375366211,116500
2023-08-07,116.53941151793796,117.4371311010002,116.32704663695499,117.07997131347656,140300
2023-08-08,115.91198379810757,117.18616585096295,115.55482397371472,116.91588592529297,270100
2023-08-09,116.91587969970159,119.10708386434126,116.33670004459134,117.60123443603516,287500
2023-08-10,117.57227564334059,119.28083498646278,117.57227564334059,117.98735046386719,216000
2023-08-11,117.29233942455933,118.94298372960004,117.29233942455933,118.35415649414062,226500
2023-08-14,117.79429298790114,118.7209701538086,117.35991559795484,118.7209701538086,145700
2023-08-15,118.37345297215884,118.66304277835748,117.74602066635293,117.8521957397461,249000
2023-08-16,117.5046964278356,118.88506073505322,117.27302164070392,117.3212890625,291100
2023-08-17,117.72671616217751,118.40242328617137,117.39852124033838,117.4178237915039,186600
2023-08-18,117.16685235814124,119.1360440823842,117.16685235814124,119.01055908203125,443100
2023-08-21,118.87542120056459,120.13994827827493,118.78854130297485,119.48355102539062,358800
2023-08-22,119.57043753667486,121.34656704591177,118.49896538278105,118.68236541748047,429600
2023-08-23,118.7885312290575,119.27117601040692,118.06456405703335,119.1070785522461,305000
2023-08-24,119.20361552285907,121.10523729105537,118.33485337437149,120.76738739013672,278400
2023-08-25,121.21142292068212,123.24818470268252,120.64190555341672,123.11304473876953,493000
2023-08-28,123.19989226756842,125.08221115071542,123.19989226756842,124.9181137084961,331900
2023-08-29,125.29458729143836,127.37961626700836,124.90846263162,127.24447631835938,472400
2023-08-30,127.7753889970742,128.63449621483008,127.12864668520417,128.27734375,298900
2023-08-31,128.65381103726338,129.08818845980795,127.64991622229032,127.95880126953125,305800
2023-09-01,128.48004703340644,129.14608446097918,127.92017731803307,127.94913482666016,252000
2023-09-05,127.10931616019016,127.39890596028071,122.939273117993,123.14198303222656,325300
2023-09-06,123.35435957766143,123.56671710464039,121.81954527524937,122.02226257324219,291100
2023-09-07,121.90642476392419,122.7558769627409,120.79634024831218,121.00870513916016,328600
2023-09-08,121.15349629318462,122.27322836758205,120.77703394911717,120.96043395996094,238800
2023-09-11,122.58212288434471,123.48949745495977,122.02226051962224,122.60143280029297,333500
2023-09-12,121.73267217607768,122.87171419988563,121.06661999469735,122.13809204101562,258000
2023-09-13,121.41412121828247,122.1960034151346,120.76737897237824,121.01835632324219,279300
2023-09-14,121.636140247531,122.88136467115167,121.636140247531,122.360107421875,217900
2023-09-15,122.09946631640231,122.78482097497866,120.82528447595804,121.55890655517578,589200
2023-09-18,121.97400142934676,121.97400142934676,120.58398196909076,121.27899169921875,175100
2023-09-19,121.32724871079844,121.32724871079844,119.7538219944691,120.96043395996094,218600
2023-09-20,121.47203852211109,121.72301587769854,120.2364690247192,120.30403900146484,206200
2023-09-21,120.0144687411218,120.03377129447881,117.94874939685624,117.97770690917969,335700
2023-09-22,118.08388014980025,118.63409493473912,117.87151525656503,118.4217300415039,341200
2023-09-25,117.7556883873549,119.82140775524918,117.25374098399664,119.73453521728516,258800
2023-09-26,119.24222158838647,119.9082737605531,118.95263913082606,119.3097915649414,547000
2023-09-27,119.73450622108247,120.13027107248026,118.60511931359898,119.23255157470703,362400
2023-09-28,119.56077415880812,121.27898852184504,118.98160185373365,121.1148910522461,219300
2023-09-29,122.0994808328885,122.42768313020652,120.45849144002428,120.69981384277344,330900
2023-10-02,120.20751032066919,121.1245398411893,119.68625306327961,120.70946502685547,244100
2023-10-03,119.71521017927378,120.96043461818644,118.23831830380705,118.60513305664062,236300
2023-10-04,119.26152579086992,120.33299777103545,118.0838713719799,119.91792297363281,208200
2023-10-05,119.65729213678843,120.5936241817703,118.53756008460046,119.45458221435547,466700
2023-10-06,119.31944873185724,122.29254248446563,119.10708384030303,122.02226257324219,491700
2023-10-09,121.45273985524017,122.80414679795139,121.32725485572051,122.53386688232422,275700
2023-10-10,122.82346599391406,124.14591560552553,122.11880859905075,122.14776611328125,322000
2023-10-11,123.10338592529297,123.26748339568097,122.25393369807082,123.10338592529297,212900
2023-10-12,122.8041363601095,122.9778887717552,120.71910742036091,121.06661224365234,189300
2023-10-13,121.62647642743022,122.27321862188774,121.04730420307162,121.59751892089844,324900
2023-10-16,122.93929125115677,123.00686123253432,121.79059420316273,122.31185150146484,275200
2023-10-17,121.6361379330477,123.88525698147005,121.6361379330477,123.05511474609375,314400
2023-10-18,122.46629731522039,123.23852459609822,121.89677260716917,122.3794174194336,287300
2023-10-19,121.70370985945581,123.04546176273765,121.0376577043825,121.36585998535156,443900
2023-10-20,121.55893076983776,122.08984304435381,117.69777201575995,117.97770690917969,446500
2023-10-23,117.4950492127488,118.88506856883411,117.00274946337274,117.28268432617188,379000
2023-10-24,117.89081547731821,119.4738898224914,117.49505057331248,119.0588150024414,312100
2023-10-25,118.57456478321305,119.88205053938309,118.05156900291749,118.5164566040039,431300
2023-10-26,117.44140514446426,121.44134471348447,117.44140514446426,119.5430679321289,576000
2023-10-27,119.58181419956955,119.94015782086082,116.56975044747777,117.35424041748047,364000
2023-10-30,118.08061901965189,118.46802410900513,117.04431465438604,118.32274627685547,283100
2023-10-31,118.65204893878834,119.02007972748278,117.99346247171451,118.41960144042969,422900
2023-11-01,118.26464547425135,119.54307717643965,117.78039092964764,119.05882263183594,360500
2023-11-02,119.82395281098783,120.3760027290367,119.10725811139456,119.68836212158203,384300
2023-11-03,120.51158420536397,122.003089063941,120.51158420536397,121.4026107788086,278000
2023-11-06,121.32513288888951,121.7706535816755,120.82151140319914,121.2476577758789,173500
2023-11-07,120.69560295651807,121.05394658334917,120.25976944156056,120.6278076171875,205000
2023-11-08,120.94740023906827,121.53819131521276,120.49220721978558,121.17984771728516,175800
2023-11-09,121.7319040679417,121.7319040679417,120.16291675704831,120.47283935546875,118600
2023-11-10,120.32755920226418,121.82875114673432,119.98858252132696,121.76095581054688,195600
2023-11-13,121.44134731636984,121.5285169718777,120.45347135181835,120.60842895507812,183100
2023-11-14,121.98371434677951,123.83357021629412,121.36386913343608,123.82388305664062,267400
2023-11-15,123.79483004673568,124.74397219433762,123.33962959784179,123.68829345703125,388600
2023-11-16,123.63018225230408,124.56962982804686,122.84568489375135,123.53333282470703,217000
2023-11-17,124.51152524922635,125.01515410991232,123.5914445767463,123.9013671875,162700
2023-11-20,123.43646564017644,123.63017186823825,122.44858973904094,123.31056213378906,213900
2023-11-21,123.4461626487234,124.25971409322274,123.19434822671913,123.88199615478516,160600
2023-11-22,124.40497096483674,125.13135267320862,123.34929976212196,124.52120208740234,174800
2023-11-24,124.90860634455977,124.90860634455977,124.06600824743718,124.48246002197266,65900
2023-11-27,123.79484097578235,124.25972862545618,122.85538590498,123.00066375732422,367500
2023-11-28,123.00064589587653,123.01033305506304,121.53819520248676,121.6544189453125,218000
2023-11-29,121.68347600284008,122.41954494708847,120.98614830714556,121.42198181152344,331800
2023-11-30,121.49947133522699,123.12656702185416,120.87962606309648,122.89412689208984,301000
2023-12-01,122.43891423680424,124.49214872577235,122.43891423680424,124.0660171508789,218300
2023-12-04,123.4364909661968,124.821466766305,122.89412819461886,124.37594604492188,192000
2023-12-05,124.21128583306977,124.637432180179,121.91591672132816,122.02245330810547,178000
2023-12-06,122.40986223070405,123.2912090417348,121.91592053013585,122.39049530029297,179500
2023-12-07,122.26457136379933,123.10717683509354,122.02244411920024,122.50669860839844,254000
2023-12-08,122.38079440650357,123.48489404447615,121.66409983551753,123.31056213378906,265800
2023-12-11,123.25246079430477,123.65923281208454,122.36142687408662,123.55269622802734,338000
2023-12-12,123.6301827914491,124.06601630124297,122.69072782247173,123.46553802490234,210300
2023-12-13,123.1749792246949,124.92798560063507,123.1749792246949,124.54057312011719,425000
2023-12-14,125.01514938630581,125.91585570519116,122.88442505238625,123.38805389404297,412900
2023-12-15,123.1556125644903,124.53089362221667,122.00308444712681,122.01277160644531,713000
2023-12-18,122.7197829699494,123.20403750335895,121.91591867109649,123.04907989501953,240500
2023-12-19,123.68829501618633,124.0950744497936,122.06119944917108,122.2549057006836,659100
2023-12-20,122.05150298155804,122.94253689228862,121.50914029696,121.61567687988281,346400
2023-12-21,122.26457917418375,122.26457917418375,120.91835219934543,121.94497680664062,421900
2023-12-22,122.41955104807825,123.03939627755607,122.14836968382394,122.29364013671875,312200
2023-12-26,122.16772810971344,122.87474295084685,121.63504518905556,121.86749267578125,274700
2023-12-27,122.14835976545038,122.48733644324355,121.09268109559463,121.33480834960938,283100
2023-12-28,121.04426606095606,121.8384431978116,120.4825290304847,121.25733184814453,343600
2023-12-29,121.24764780949722,121.41229257117608,119.66897336181908,119.72708892822266,313500
2024-01-02,118.74890465167896,120.19198118193904,118.4389820266069,119.0103988647461,313100
2024-01-03,121.20891408766599,123.25246885863528,119.2718959077245,121.41230010986328,531700
2024-01-04,121.23796483552567,121.95465947338585,120.22102736343857,120.30819702148438,353300
2024-01-05,119.88204634088143,120.45347050993072,119.11692332182685,120.288818359375,423000
2024-01-08,120.16292355411841,121.21860231382453,118.51646104234021,120.4341049194336,352400
2024-01-09,119.81425753742421,120.71497127842206,119.09756288636142,120.70528411865234,250300
2024-01-10,120.54064287476366,121.4704107331338,120.31788991750878,121.2476577758789,279600
2024-01-11,121.43166549949392,122.97159877535763,121.00552652992823,122.84568786621094,323100
2024-01-12,123.86263082764847,123.9401133306804,121.95466667803164,122.4486083984375,231700
2024-01-16,121.91592895752716,122.82632992167458,121.55758530161769,122.81664276123047,257500
2024-01-17,121.97404234594728,123.26215387467808,121.92561393373273,122.70042419433594,336900
2024-01-18,123.31057880230377,125.91586326695527,122.33238253849082,125.0732650756836,444200
2024-01-19,125.62532832931079,127.32021934154592,124.49215961910426,126.68099975585938,418000
2024-01-22,126.77782467019193,127.65917142422897,126.44853515053244,127.05870056152344,266200
2024-01-23,127.64947374780017,127.69790214760955,126.22576450738619,127.67852783203125,217800
2024-01-24,127.95941205571333,128.12405682223405,126.42916597018038,126.66161346435547,294400
2024-01-25,127.8722572161754,128.21124131759007,126.27422308842341,127.1168212890625,332300
2024-01-26,127.5332837592286,128.4146306738467,127.26210236677342,127.55265808105469,219900
2024-01-29,126.92313431646491,128.41463199025813,126.38077152599466,128.08534240722656,187800
2024-01-30,127.87226919978787,128.89888659293194,127.48487142895988,128.08534240722656,228400
2024-01-31,128.60024569986317,128.9888630417677,125.48167121134671,126.18116760253906,537500
2024-02-01,126.74464635093254,127.37612912190053,125.91884750498805,126.78350067138672,298800
2024-02-02,126.25887748257338,126.98751824296068,125.02504164419864,126.39488983154297,344800
2024-02-05,125.45249058864258,127.7064112248121,124.40324630441086,126.92919158935547,319500
2024-02-06,126.7640332690289,127.65783065034668,125.61764580958807,127.3955307006836,369700
2024-02-07,127.66758565224141,128.64881658304117,125.68567439448216,128.04647827148438,393000
2024-02-08,127.89101966708147,130.99988380062553,127.79386164056334,128.3573455810547,620700
2024-02-09,128.34763875632336,135.24544372439263,127.76472023183752,135.0025634765625,650900
2024-02-12,135.19685465206098,136.46954468413216,133.59383624109773,133.6909942626953,491300
2024-02-13,132.79721865694546,133.41899155451992,131.13591108923504,132.05885314941406,275900
2024-02-14,132.37944687307478,133.5452839390653,131.32049253489302,133.26353454589844,335000
2024-02-15,133.26354322870253,133.8853161197666,130.73759734435762,131.19419860839844,471400
2024-02-16,131.51477747504006,134.06988214666194,131.19417380404235,133.58412170410156,453900
2024-02-20,133.2343951113686,136.14895823746613,133.0498037415049,135.71177673339844,373000
2024-02-21,135.1191419156268,136.11980735566468,135.03170858379454,136.012939453125,276300
2024-02-22,136.4695496025818,138.36401249814983,136.08094715065158,137.44107055664062,295700
2024-02-23,137.92685700214864,138.0045804720149,136.5958777882497,137.334228515625,190300
2024-02-26,137.47022831952583,138.0142777346372,136.79016655063663,137.87826538085938,199200
2024-02-27,137.87825149589725,138.13084160626636,135.81863182489295,136.31410217285156,244600
2024-02-28,135.67290467799532,137.21763436808848,135.3620256598198,136.41127014160156,189600
2024-02-29,136.62501092668225,137.59653198323437,135.84779111659356,136.45985412597656,250600
2024-03-01,135.89636538153738,136.78043824566248,135.5854715386809,136.294677734375,151400
2024-03-04,136.68330880168995,138.07257688823623,136.5570063122818,137.91714477539062,260300
2024-03-05,138.21828615058587,139.13151819196344,137.7033812462743,138.46116638183594,190200
2024-03-06,138.85950199121973,139.54928848635836,138.4223204664699,138.9955291748047,184000
2024-03-07,140.3847801035931,141.0065529311518,139.74357270585753,140.53050231933594,250100
2024-03-08,140.58881247786712,140.9385606359244,138.89836057655117,139.0149383544922,185200
2024-03-11,138.72349095328647,139.29669966708138,137.9365612363938,138.6749267578125,226700
2024-03-12,138.73321697940324,138.7817959995776,137.45080200313137,138.3543243408203,242200
2024-03-13,138.9275183757281,138.9275183757281,136.91646256752327,137.13992309570312,336800
2024-03-14,137.33421990117986,137.5868100442241,136.36269882514554,136.9164581298828,235200
2024-03-15,136.051814987164,138.35433018745536,135.76037050227316,136.98448181152344,599500
2024-03-18,136.91646004723472,137.2759329308813,134.9734178679561,135.2940216064453,299700
2024-03-19,134.92484757362786,136.3238402513451,134.92484757362786,135.53689575195312,253000
2024-03-20,135.65348158477894,136.08095319543062,135.17743095941972,135.98379516601562,220000
2024-03-21,136.31411913042012,137.56738961386023,135.33288818521672,137.1204833984375,255800
2024-03-22,137.9657000290801,138.3931716662274,137.0330481155177,137.5576629638672,276000
2024-03-25,137.17875500009464,139.94759563375453,137.1496105575705,138.88864135742188,316300
2024-03-26,138.7623528695866,140.20019986781864,138.55832692713028,139.12181091308594,314200
2024-03-27,139.57844141327328,141.01628856007486,139.57844141327328,140.54025268554688,218200
2024-03-28,140.69566694081686,141.21057184317644,139.55897441755064,139.79214477539062,247800
2024-04-01,139.69498275629263,139.69498275629263,138.07254464302545,138.23770141601562,204400
2024-04-02,137.80056286299626,137.80056286299626,136.39186009384636,136.62503051757812,202600
2024-04-03,136.66386346242072,137.16905855601934,135.886643662477,136.86788940429688,258700
2024-04-04,137.79081244096392,138.68460989923494,136.95530386541427,137.7130889892578,403600
2024-04-05,137.35364110181234,138.69432997574083,136.9358793711853,137.69366455078125,288300
2024-04-08,137.6353754876347,138.3251619062476,136.39182981890286,136.50840759277344,312500
2024-04-09,136.42097007036026,137.08161202520498,135.39116023485812,136.31410217285156,242600
2024-04-10,135.02198614707606,136.2266775391274,134.50708119646376,135.43002319335938,200700
2024-04-11,135.2939969887801,136.05178211487575,134.5070674212371,135.16770935058594,265300
2024-04-12,134.23504002650498,134.99282513721704,132.08798715423154,133.29266357421875,299200
2024-04-15,134.66253312030298,135.82835541361058,133.90474788844134,134.2642059326172,319600
2024-04-16,133.8658771295901,135.42031671806618,133.44813019942495,134.64309692382812,281700
2024-04-17,134.92485214373025,135.50775589636643,134.4099471579958,134.45851135253906,565400
2024-04-18,134.44877343666178,135.46887332130814,134.28361666664966,135.1482696533203,246600
2024-04-19,135.09972514911323,135.9352339088312,134.81799054578042,135.3717498779297,276600
2024-04-22,135.57574676552883,137.1301713362783,135.28428752594058,136.32382202148438,298800
2024-04-23,135.78949299276147,137.13990657658505,135.54661274513685,136.15866088867188,417200
2024-04-24,136.36327776431676,137.28892764322538,136.06122500182607,136.42173767089844,559200
2024-04-25,136.25610434963974,137.62997170625445,135.35968437114948,136.58738708496094,694400
2024-04-26,138.36076128932666,144.7039147819686,138.26331818639707,139.65667724609375,489500
2024-04-29,141.18641384576117,144.2264628084988,140.66999817879426,142.6284942626953,676700
2024-04-30,142.004909646234,142.35568398559658,140.36795777329885,140.6797637939453,585100
2024-05-01,141.2741399676868,143.43724605293235,140.87464405380578,141.65414428710938,359600
2024-05-02,142.02437958989475,142.9695211017198,141.56642381126906,142.18028259277344,356500
2024-05-03,143.33979979107895,143.35929138510804,141.12797220227156,143.0474853515625,303300
2024-05-06,143.97311219834887,145.25928957827287,143.38849828106964,145.22030639648438,260200
2024-05-07,144.51877476610764,146.52597749323783,144.51877476610764,145.8828887939453,392900
2024-05-08,145.8829062711246,147.003427580538,145.64905175216694,146.92547607421875,223500
2024-05-09,147.13009939399845,147.84138644002505,144.82084365124953,145.25930786132812,299100
2024-05-10,145.13262025255216,145.18134179717063,144.29466023538959,144.68441772460938,186300
2024-05-13,144.72339575642974,145.64904569541716,143.09619715747255,144.08030700683594,167500
2024-05-14,144.49930037798347,144.50903874086748,143.69057022672388,144.1095428466797,137600
2024-05-15,144.16802780381772,144.53827890002992,143.00852322640148,143.5054473876953,211100
2024-05-16,143.5931019397819,144.1095175689133,142.6771904865369,143.7587432861328,235500
2024-05-17,144.06081633480602,144.37260744920198,143.35926774275575,143.8854217529297,169500
2024-05-20,143.8074671903669,144.60645885172232,143.27155996235138,144.3726043701172,163400
2024-05-21,144.14850961965013,144.86953495193305,143.3202879692016,144.78184509277344,280400
2024-05-22,144.27521172315187,145.01572879587746,143.6905828088684,144.97674560546875,283300
2024-05-23,144.85006990865986,145.1326311002017,143.77825531785473,143.9341583251953,171700
2024-05-24,144.6746361431978,145.01567202096643,143.58334512269835,144.2946319580078,162300
2024-05-28,143.83669409587452,143.9925970803095,142.08283755802526,142.9500274658203,318400
2024-05-29,141.91718337314714,142.94027628000015,140.8064006116937,141.12794494628906,229700
2024-05-30,141.41052828428462,143.21310648226037,141.28385524260108,142.39463806152344,328100
2024-05-31,142.34593730463553,144.04134916751755,142.18029592394424,143.90493774414062,358900
2024-06-03,144.69415196830752,144.69415196830752,142.53104628481765,144.3628692626953,266200
2024-06-04,143.86595140573118,144.58699169506673,142.94030141967548,144.39212036132812,287900
2024-06-05,143.93417223495806,144.40186643444855,143.31057501306057,144.12904357910156,229200
2024-06-06,144.2167184531987,144.2167184531987,141.67360827716013,142.21926879882812,197600
2024-06-07,142.0341108036029,142.57975636137067,141.72230484617774,141.8197479248047,179100
2024-06-10,141.11821719014912,142.07309703669912,140.2997487502491,141.85873413085938,125800
2024-06-11,141.19616629951713,142.0048963637283,140.65052068215246,141.7710418701172,147700
2024-06-12,142.49208619477034,142.56028446504888,140.37770193248102,142.09259033203125,221300
2024-06-13,142.1510502401924,142.77464737345872,141.3033518363989,142.09259033203125,232400
2024-06-14,141.37156596501876,141.65414204313348,139.99769849820458,141.040283203125,141500
2024-06-17,141.15719922802685,142.92080932391997,140.86489966231062,142.5797882080078,303800
2024-06-18,142.72591745789433,143.9049133850115,142.71617909634801,142.9305419921875,219900
2024-06-20,142.90135726910603,143.74905589149267,141.93672393251512,142.07313537597656,199900
2024-06-21,142.13156155358197,143.3690174832924,141.5859159092863,143.08645629882812,444100
2024-06-24,143.4469635485069,144.43107334340556,142.91105628683806,142.95977783203125,182900
2024-06-25,143.02799086064448,143.0377440913265,140.79668659073084,141.1474609375,194500
2024-06-26,140.5530858194562,141.07923987621706,139.29615315358203,140.0269317626953,192400
2024-06-27,140.1828155517578,140.19256878158996,138.6238301546421,140.1828155517578,377300
2024-06-28,140.0951327056182,140.62130164013826,136.49969950140468,137.2012481689453,435100
2024-07-01,137.75662096959138,137.85404918024145,134.84324539176333,134.98939514160156,306400
2024-07-02,134.9309812961911,136.89921618292465,134.22943252206295,136.80177307128906,259400
2024-07-03,137.2694710198884,137.77613352960557,136.96741821316812,137.6007537841797,143300
2024-07-05,137.37662989691958,137.81509405611425,136.14891240990124,137.28892517089844,207000
2024-07-08,138.019727465646,138.84794925037193,137.8735776766851,137.88331604003906,249300
2024-07-09,137.24996524910202,137.64946111828195,136.16841232749826,136.4509735107422,238400
2024-07-10,137.142806434762,138.00025822378652,136.9674266784967,137.66896057128906,142000
2024-07-11,137.5812505259672,139.62743658884474,137.14278633184458,138.4484405517578,244500
2024-07-12,139.7346176851943,141.76131215018944,139.7346176851943,140.88436889648438,263900
2024-07-15,141.0500051627038,141.95617833865197,139.471528177945,139.75408935546875,319900
2024-07-16,140.1633528436763,141.57618861187552,140.1633528436763,140.8551483154297,178800
2024-07-17,140.64078357711574,142.03414260124,140.64078357711574,141.1474609375,242300
2024-07-18,140.90386821584644,143.4762084725293,140.89412985288294,142.53106689453125,434200
2024-07-19,142.83311887197172,142.83311887197172,140.95258895745775,142.1997833251953,251200
2024-07-22,142.24849707102436,143.7782525564522,141.5274568267193,143.41773986816406,235700
2024-07-23,144.08032781477473,144.70392506172618,141.9367132076123,142.29722595214844,234500
2024-07-24,142.3264677844705,142.8721135056052,140.21206831347726,140.4459228515625,250600
2024-07-25,139.6053057678811,140.79776282361163,138.0316544018294,138.29556274414062,558100
2024-07-26,139.89855967497675,147.87432007213235,139.13617092314783,143.34886169433594,562800
2024-07-29,143.27066227743248,145.00070512899177,141.89249229543964,144.46311950683594,390900
2024-07-30,144.05258512959574,144.5608342758621,142.12706091227471,142.45938110351562,411000
2024-07-31,143.1924774624523,145.48942760589452,142.1270899126396,143.66163635253906,280600
2024-08-01,143.56388751848672,146.1638212279078,142.14661231103588,143.7104949951172,335300
2024-08-02,143.2706780465831,143.68119395387907,140.50456891748377,142.40077209472656,213500
2024-08-05,140.19177372348608,140.19177372348608,136.33095585655514,137.5038604736328,448500
2024-08-06,138.13918435319152,142.7917121263533,137.92415011565598,141.65789794921875,476000
2024-08-07,142.71351863316335,143.93529731272562,140.23087091858068,140.35794067382812,353600
2024-08-08,141.1985404920243,142.8601566956573,141.1985404920243,142.27369689941406,268600
2024-08-09,142.12707150261355,142.12707150261355,140.2308686365047,140.7000274658203,263200
2024-08-12,140.71958701960284,140.92483749251866,139.5466824314966,140.054931640625,221100
2024-08-13,140.269965572886,142.01956104764162,139.86923348856917,141.1105499267578,212000
2024-08-14,140.87598685966623,141.54062736485398,140.25043671360459,140.6511688232422,115700
2024-08-15,141.72631859410302,144.01348456991627,141.72631859410302,143.69093322753906,277500
2024-08-16,142.8112726046603,143.52478720605873,142.32256111329048,143.40750122070312,250600
2024-08-19,143.01652131100408,144.39467622104934,142.62554321493963,143.65184020996094,191200
2024-08-20,143.66162057853262,144.961594887798,143.66162057853262,144.76611328125,387200
2024-08-21,144.8247430345538,146.19314398389653,144.13078115759419,145.95855712890625,267300
2024-08-22,146.19315832348536,147.004406250368,145.313468716703,145.62625122070312,200400
2024-08-23,146.2811445015058,147.13149782463037,146.06611022669153,147.0435333251953,221400
2024-08-26,147.27810094238174,149.2231782196865,146.75029904717988,146.7698516845703,235500
2024-08-27,146.62321074365258,148.1186666577194,146.4570506325663,147.78634643554688,208300
2024-08-28,147.52243900517198,148.53896722738338,147.52243900517198,148.11866760253906,249000
2024-08-29,149.10587309256547,149.45774594898302,147.79612992701317,148.8419647216797,187100
2024-08-30,148.76377592556912,149.9757858009324,148.21642143807964,149.73143005371094,178500
2024-09-03,148.67579943804665,148.9397077997503,146.34952813965234,146.65252685546875,362400
2024-09-04,146.22250262276373,147.49314072912452,146.22250262276373,147.3269805908203,175800
2024-09-05,147.6690878882822,148.3337284561028,146.56459498166424,147.3172149658203,200600
2024-09-06,146.9848817009006,149.66301128850816,146.9848817009006,148.93972778320312,319100
2024-09-09,149.1254188548598,149.60434653021005,148.02092620644984,148.48031616210938,241500
2024-09-10,148.4412283503302,149.34045573341479,148.02094361320775,148.08935546875,158100
2024-09-11,147.38558937416465,147.4735687681419,145.2743672902122,147.43446350097656,178000
2024-09-12,147.48335555565916,148.57806454072724,146.58412818731162,148.52920532226562,200400
2024-09-13,148.75400023614793,149.55547929481034,148.47053923038047,148.8419647216797,138600
2024-09-16,149.58480892545694,149.711878687663,148.63672233934471,149.53594970703125,182900
2024-09-17,150.52312888636465,152.05769002153292,148.44121330516873,149.5750274658203,259900
2024-09-18,150.28854503898594,151.97949745395337,149.26226288919727,149.6141357421875,214200
2024-09-19,151.5201208780258,155.22454756499997,151.5201208780258,153.357666015625,412400
2024-09-20,152.78099315792383,152.78099315792383,150.9923072031144,152.39002990722656,663300
2024-09-23,152.64413901555898,153.36743736156149,151.24643136778755,152.4388885498047,315800
2024-09-24,152.65392820380836,153.53361791705538,152.50732070874676,153.09378051757812,246200
2024-09-25,153.7486153545566,154.30573861662077,152.35089294120183,153.59222412109375,284100
2024-09-26,154.3741613127642,155.4688700896262,154.13957446874156,154.80422973632812,371600
2024-09-27,155.09749334860447,157.9027078415743,154.68697742838057,156.28018188476562,354300
2024-09-30,155.6937051154717,156.79819789228802,155.34183223436244,156.57339477539062,289800
2024-10-01,156.91549130804347,156.91549130804347,155.4591404954803,156.35836791992188,192200
2024-10-02,156.25084899293302,156.49520475484402,154.39375116812636,155.16590881347656,186900
2024-10-03,154.42305944347365,156.83729535757135,153.10353247642593,155.3516082763672,367000
2024-10-04,156.32902451153032,157.82448038886116,155.73279593261282,156.95457458496094,350500
2024-10-07,155.79144712681207,156.03580287015131,154.4425986510062,155.1072540283203,223300
2024-10-08,154.70649792015064,155.42979624698927,153.5531460383624,155.0876922607422,205900
2024-10-09,154.77492465796232,156.4365406316993,154.5501066490753,156.0944366455078,152600
2024-10-10,154.4817068065256,155.7816811750794,154.4817068065256,155.6252899169922,168500
2024-10-11,157.3064660526596,158.26433645347558,156.7297900399239,157.90269470214844,194400
2024-10-14,161.26503180438755,163.97248287121053,159.76957575499546,163.4153594970703,469700
2024-10-15,163.54240800657777,165.82957403020615,162.73114520381247,164.87168884277344,397300
2024-10-16,164.89125425631357,165.37996574783452,162.1740195566003,162.2913055419922,330000
2024-10-17,163.21007464638268,164.5198326911605,162.76046845617475,164.0995330810547,238200
2024-10-18,165.2822507639931,165.2822507639931,163.9920451241525,164.82286071777344,171500
2024-10-21,164.66643721782916,164.68598985183766,162.5454313137494,162.5747528076172,217900
2024-10-22,161.97853331620303,162.613852271317,161.0890748476109,162.06649780273438,228500
2024-10-23,162.7506980951874,164.18751109598531,162.40860899432064,163.86495971679688,318100
2024-10-24,164.96263491104682,164.97243006379486,162.8359053646187,163.22793579101562,547300
2024-10-25,165.5506581898616,166.4621158464969,161.32662941673635,165.54086303710938,518900
2024-10-28,166.51111226995798,167.9910028799948,165.39385168622255,165.72708129882812,350000
2024-10-29,165.6584567098737,166.10928794010354,164.29618282133464,165.3350372314453,338100
2024-10-30,164.99203323960487,166.8051234675815,164.76661013936223,165.65846252441406,290300
2024-10-31,165.71726236332717,166.8835285592377,164.511800602721,164.56080627441406,329900
2024-11-01,164.7470311079298,167.57938567105288,164.2765945700034,166.03089904785156,316300
2024-11-04,166.24649215601715,167.16774490614142,164.82540251348084,164.90380859375,191800
2024-11-05,164.39420326637682,166.9619390225879,164.39420326637682,166.91293334960938,206200
2024-11-06,171.6563823010005,171.6563823010005,168.7064263444236,169.70608520507812,264100
2024-11-07,170.72533703485217,171.96021416270565,170.07849805877953,171.2251739501953,412300
2024-11-08,171.21538735969997,174.29275554057725,171.00958444641154,172.25424194335938,309200
2024-11-11,172.80306637183605,174.47894973522423,172.39143067982758,172.63644409179688,189100
2024-11-12,173.12645192520313,173.70469487939047,171.46036389745427,172.19540405273438,179800
2024-11-13,171.9993896484375,172.87163666728088,171.5583685633018,171.9993896484375,168400
2024-11-14,171.65636354138798,172.28359717955007,170.44110677931556,170.6273193359375,198200
2024-11-15,169.51987152643795,170.29410728655165,162.8555040894364,163.16912841796875,620500
2024-11-18,163.07112374085875,164.4726082153111,161.05221564532687,163.36514282226562,384400
2024-11-19,163.10050135971352,164.32556823234182,162.88488839377655,163.5709228515625,287600
2024-11-20,163.6689523651395,165.57025875538363,162.3458740139482,165.36444091796875,221800
2024-11-21,165.32524989622468,166.83452591248917,164.3942019349008,166.49151611328125,205100
2024-11-22,166.7855161620559,168.63783184110315,166.7855161620559,168.0889892578125,241600
2024-11-25,168.61822873869966,170.54893557134125,168.31441450843965,169.0592498779297,270100
2024-11-26,169.41206482132665,169.41206482132665,167.74597670276387,168.60841369628906,140300
2024-11-27,169.2258486988311,170.41172010241513,168.09879307136399,168.30459594726562,167200
2024-11-29,169.1474408135347,170.02949799270758,168.65741403213775,169.51007080078125,117300
2024-12-02,169.5296846654076,169.65709643169575,167.4323703477295,169.31407165527344,170900
2024-12-03,169.99028664377565,169.99028664377565,167.67735964872438,168.9612274169922,160100
2024-12-04,168.46139595900706,169.44144946157957,167.61854934861756,169.14743041992188,173400
2024-12-05,168.5790016500735,169.00043244262315,167.12852661860668,167.68716430664062,245000
2024-12-06,168.17719634246092,169.206240613641,167.44215617480054,167.7361602783203,209200
2024-12-09,168.13799201141873,170.00989796299024,166.8345189382819,167.3833465576172,301700
2024-12-10,167.31474873040528,167.9517775769901,164.8352143640773,167.50096130371094,287000
2024-12-11,168.4516157508474,170.6273359159199,168.32420399879283,168.87303161621094,418600
2024-12-12,168.2458005582768,169.15725818713602,167.37355344809498,168.21640014648438,178300
2024-12-13,167.5009900061416,167.58919125458,166.43273500767643,166.80514526367188,153200
2024-12-16,166.74632140113093,167.52055717676743,164.24718169284583,164.28639221191406,236100
2024-12-17,163.57093094101776,163.5807410473189,159.59191593464618,159.83692932128906,511900
2024-12-18,160.4249646681731,161.14039955760865,154.76025646290137,155.0542755126953,468600
2024-12-19,155.34829094522857,158.34726752667316,155.07387713324243,155.70111083984375,404700
2024-12-20,155.5541244574333,156.59297898670457,154.3290573324563,155.02488708496094,730200
2024-12-23,154.03504524233003,155.73053403322555,153.82924233044926,155.35812377929688,194900
2024-12-24,155.61291680874774,156.2401505443862,154.77007007450553,156.1715545654297,100500
2024-12-26,155.26008773522096,156.44595915755792,155.26008773522096,155.6815185546875,164500
2024-12-27,154.6720636172203,156.39695253937097,154.46624578488056,154.99546813964844,145000
2024-12-30,153.86839364658783,154.34862522691367,151.9082867211536,153.60377502441406,221700
2024-12-31,154.14281786238718,155.09347098198026,153.0647529985919,153.96641540527344,317100
2025-01-02,154.50544526899088,154.95627650847348,150.38922310762084,151.08506774902344,239400
2025-01-03,150.9674307756078,152.61392839063691,149.82077000388378,152.3983154296875,250700
2025-01-06,150.92828718294632,151.55552102500977,148.41935181469256,149.8698272705078,369000
2025-01-07,152.8099524460056,152.94715934907052,149.55618233571022,150.36961364746094,361200
2025-01-08,149.8403790620888,151.18304757207693,149.056333270966,151.0752410888672,228600
2025-01-10,149.67380144035604,151.22228807240447,149.53659452128502,150.3892364501953,350800
2025-01-13,149.87959178115395,151.61429086251573,149.87959178115395,150.82044982910156,349300
2025-01-14,151.72210026466513,152.3493339905026,150.41862714054025,151.52609252929688,196900
2025-01-15,153.0059656935918,153.7900115770172,151.09486413391397,152.45713806152344,206100
2025-01-16,152.78055957623786,154.03502702458957,152.21212667707357,153.29019165039062,346300
2025-01-17,153.83901445152966,154.79946279018606,152.5747369358163,152.9765625,231900
2025-01-21,153.59400049694958,157.0633836408648,153.59400049694958,156.6419677734375,270900
2025-01-22,156.16174421991363,157.54362344855716,155.18169057482152,155.8971405029297,280000
2025-01-23,155.29929122166507,156.6223545339136,154.58384136708125,156.43614196777344,149800
2025-01-24,156.46556533744905,157.26921653989086,154.0840420532797,155.1425018310547,329600
2025-01-27,155.09349854860477,155.75013273528967,153.52540664153773,155.29931640625,317000
2025-01-28,154.42704949078208,157.15159724174742,154.42704949078208,155.2600860595703,204300
2025-01-29,155.61289915746963,155.65210967336728,153.49597993190142,153.97621154785156,265800
2025-01-30,154.67204641153714,155.5148780427438,153.456774720444,154.97586059570312,274200
2025-01-31,154.75046688049648,156.21075221700386,153.63320630664722,154.0154266357422,834100
2025-02-03,151.49667494995006,153.62338929429322,151.065449008345,152.86874389648438,364600
2025-02-04,152.97657163323618,155.29930896783935,152.97657163323618,154.55445861816406,302400
2025-02-05,155.56678689466608,156.92313594175852,155.07535781931088,155.60610961914062,262600
2025-02-06,157.10003097165043,157.10003097165043,152.70665418045422,153.7681427001953,446600
2025-02-07,154.9181067066418,155.19330580645521,139.60517395113374,140.7256317138672,1221500
2025-02-10,141.78711035544322,142.12129352206097,138.48470639401995,140.82391357421875,621900
2025-02-11,139.83121423337005,140.61750364616478,137.8556600216051,139.85086059570312,377300
2025-02-12,138.55351384739762,141.03032057107268,137.53133297854282,139.27099609375,423500
2025-02-13,140.3030162479326,141.3153590533059,139.0351356946295,140.3226776123047,665900
2025-02-14,141.22689417596524,142.81911962723777,140.27352054231486,142.3080291748047,512800
2025-02-18,142.3080350119088,144.7651805608191,141.4332917963858,144.38186645507812,489600
2025-02-19,143.63488862497093,144.9617531188217,143.1139750082088,144.5194549560547,331000
2025-02-20,144.45068672182066,144.89296996096067,143.41868249900884,144.1656494140625,283100
2025-02-21,144.50962590768984,144.86345542520576,142.71099377675264,143.83145141601562,451900
2025-02-24,143.67418921142476,144.76516229739394,141.88539527604814,143.1139678955078,353300
2025-02-25,143.3793614383485,145.7873610696006,143.22210052435642,145.17799377441406,336700
2025-02-26,144.13615069776068,146.62278077273558,144.10666615119783,144.12632751464844,735600
2025-02-27,143.72335768500795,144.65707002297643,142.86827580669944,143.13365173339844,262800
2025-02-28,143.65455331584818,144.4310046691492,142.15078151982524,144.23443603515625,348700
2025-03-03,144.4506545692963,146.2885943969859,143.19259741490004,144.07716369628906,394100
2025-03-04,143.04517170760187,145.413863500686,142.65203443781988,143.43832397460938,490100
2025-03-05,143.54644673744147,146.2984527664409,143.54644673744147,145.89547729492188,445100
2025-03-06,145.0305485219981,148.9030120941682,144.53911943917907,148.5590057373047,471700
2025-03-07,147.92997950600335,150.7311313223095,146.62277632487553,150.16107177734375,480200
2025-03-10,149.46327062147788,151.3601799639148,147.66463811184974,147.98898315429688,391100
2025-03-11,147.76290385774493,147.9791338698189,144.74553686653798,145.3549041748047,304000
2025-03-12,145.69890235666847,145.69890235666847,143.0648346293028,143.5267791748047,299700
2025-03-13,143.9002588077556,144.67671011222558,141.29567583016868,142.27853393554688,238400
2025-03-14,142.74050098258454,144.37204929445636,142.06232638323863,144.14599609375,223600
2025-03-17,143.99853726172162,145.46300125443267,143.35968548483189,145.3057403564453,225200
2025-03-18,144.86347189053822,145.00107144092166,143.28106956251574,143.7921600341797,219900
2025-03-19,143.8314663428333,144.93227773224964,142.97638450227305,144.4604949951172,279600
2025-03-20,143.62507975791536,144.8929602918042,141.26621097787046,142.7110137939453,332800
2025-03-21,141.5315735327772,142.96655302987472,139.9196867674318,142.3375244140625,601900
2025-03-24,143.25157833447938,145.6399164898611,142.42598107068508,145.45318603515625,463800
2025-03-25,145.94461117942933,146.67191660765496,143.4284817335018,144.68655395507812,325200
2025-03-26,144.5292868819481,146.1509967511721,143.79214330553276,146.01339721679688,630400
2025-03-27,145.73820579296662,147.32060801990121,144.50963310116106,146.7898712158203,312700
2025-03-28,146.73089236026235,147.42872827286658,143.2614041546856,144.41134643554688,239800
2025-03-31,144.06733927166468,146.53430765527222,143.59557159214165,145.83648681640625,372500
2025-04-01,146.3279289386792,147.45820983366664,144.85364168579534,146.54415893554688,240000
2025-04-02,145.4630159103769,148.53936692435062,145.4630159103769,147.94964599609375,247600
2025-04-03,144.24425830925108,147.47787005738485,143.9494128587316,146.12152099609375,352900
2025-04-04,142.73066750752537,145.42370434629547,137.63945428633932,137.7770538330078,531600
2025-04-07,134.00289075907227,139.68381026775526,128.6070085425134,132.34185791015625,629900
2025-04-08,135.025053604175,136.9219625810332,129.02961306087627,131.3688201904297,473800
2025-04-09,130.89705451371228,141.94438664080494,129.06895256636582,141.28587341308594,491800
2025-04-10,137.60014014324574,140.9123672890104,135.21180205228458,138.34710693359375,309000
2025-04-11,138.45522828256912,142.2294151261458,137.3446087271347,141.6396942138672,203000
2025-04-14,143.30071647529343,143.8904223472296,141.32516206166184,143.29087829589844,249300
2025-04-15,143.59560325421714,144.02804830741772,141.30554162152515,141.47262573242188,250700
2025-04-16,141.5905608939007,143.3204010585323,140.12611166033892,142.5144500732422,307700
2025-04-17,142.90756616049867,143.26139568732975,138.29797412661645,141.36448669433594,390600
2025-04-21,140.84358440349993,141.58072806053443,138.6812993423107,140.13592529296875,291600
2025-04-22,142.02301901433995,144.3032573833429,141.12861439560723,143.5169677734375,217800
2025-04-23,145.3352389782031,146.76039538307882,144.69638713943039,145.5121612548828,537000
2025-04-24,145.39420527769312,149.3944453214828,142.9665593386668,148.86370849609375,424500
2025-04-25,148.26414612424384,150.37728497964335,145.04037284864117,146.50482177734375,220500
2025-04-28,147.23215717254052,148.44106852493894,145.73820855180134,147.1338653564453,235200
2025-04-29,147.1928352219858,149.37478157519996,146.4556915890682,147.7235870361328,359900
2025-04-30,146.51468782594912,147.41891562430362,144.68657086484222,147.3795928955078,556200
2025-05-01,146.34446689472773,148.3949671666266,144.87560983167245,146.1768798828125,445300
2025-05-02,150.8200800146687,150.82993276495682,145.69382189987473,149.8441162109375,431600
2025-05-05,149.28220335297306,151.04682352421423,148.74001624656938,149.3314971923828,267600
2025-05-06,148.11895410159835,149.88355931551433,147.30072446354023,148.77944946289062,312000
2025-05-07,149.725822860132,150.97779905174502,148.4836843764286,149.24276733398438,318400
2025-05-08,149.6370904773431,152.3776743797429,149.0949033979698,151.18482971191406,302500
2025-05-09,151.72702915659627,152.11149701025283,150.77078589758978,151.14540100097656,231600
2025-05-12,153.58035336298764,154.36900960970033,151.52000038825545,153.31419372558594,352500
2025-05-13,154.09298971226121,154.09298971226121,151.02709949704072,151.4608612060547,339400
2025-05-14,151.44115218055256,151.44115218055256,148.8287440194347,150.31732177734375,350100
2025-05-15,150.18915951898913,153.2747551350197,150.18915951898913,152.7522735595703,278100
2025-05-16,152.9790195330319,154.9210795243073,152.3973913234781,154.78306579589844,278600
2025-05-19,154.14229995484683,156.0942128107709,154.09300611132787,155.83790588378906,185400
2025-05-20,157.98696796016725,157.98696796016725,155.6703079013984,156.28150939941406,388100
2025-05-21,154.6351912204993,155.413979709526,153.61980133414392,154.2310028076172,319800
2025-05-22,154.14229666137166,155.02952565627956,153.35364030902645,154.4281768798828,278900
2025-05-23,152.91987932375972,153.96484260280818,152.07207637318606,153.72825622558594,260500
2025-05-27,154.8027705397575,156.1927754755183,154.46759652531446,155.916748046875,352800
2025-05-28,155.91675648544185,156.58710455060864,155.02951252332593,155.1675262451172,364400
2025-05-29,155.59144226540175,156.41952463373346,154.59577287317205,156.0843505859375,232100
2025-05-30,155.9956163554189,156.52795067401013,154.31971618579314,156.15333557128906,335100
2025-06-02,155.30554827866962,156.813861590753,153.05788752213863,154.6844940185547,349600
2025-06-03,153.9648187854225,155.20695724316363,153.78737902995462,154.04368591308594,397800
2025-06-04,154.2704388516904,154.30001214509375,148.15836414730086,148.27667236328125,831900
2025-06-05,149.43008223768163,151.1651140408049,146.9359674396561,150.32717895507812,482400
2025-06-06,152.18050703516937,152.28894746522036,150.05115456510006,151.1355438232422,264700
2025-06-09,150.544055582443,151.007375533086,149.21319719105352,149.44979858398438,388400
2025-06-10,150.00187555238352,150.82995798605992,148.72031080938757,150.3666229248047,323500
2025-06-11,150.82994254149838,151.4115707359019,149.4498052933599,149.7652587890625,380800
2025-06-12,149.26247896131767,152.42694148321849,149.26247896131767,152.16078186035156,337200
2025-06-13,150.829935873921,151.53972501083467,148.59212803830783,149.0160369873047,361200
2025-06-16,149.09489874958857,150.73134277186625,148.97659053611832,149.53851318359375,346200
2025-06-17,148.52313648415543,149.11461743433793,147.01483824975645,147.33029174804688,379700
2025-06-18,147.0049610386582,148.59212630654162,147.0049610386582,147.5767364501953,383200
2025-06-20,148.15837561472694,148.6315784305405,146.8768260217442,148.16824340820312,570500
2025-06-23,147.3697197894407,151.75660037829923,147.3697197894407,151.6087188720703,356500
2025-06-24,152.37767518899636,152.37767518899636,151.0073757093355,151.68759155273438,246600
2025-06-25,151.67775053438675,152.33824588551536,150.6032139948955,151.7467498779297,264700
2025-06-26,152.33824953068293,153.37336004754195,150.94824440925422,152.28895568847656,658200
2025-06-27,152.46640393058135,153.89583503865111,152.04249495674745,153.60995483398438,643100
2025-06-30,153.81695259670582,154.28028757107535,152.4170949235091,154.21127319335938,315500
2025-07-01,154.2112909513434,157.53350328229894,153.7479709659874,156.75469970703125,338300
2025-07-02,156.7645627082632,158.2531403852606,156.399800331021,158.04612731933594,293500
2025-07-03,158.3221432480809,159.07135840752164,157.55320754586447,158.75588989257812,235100
2025-07-07,158.66717993630388,160.0670377135844,158.27285931033134,158.6770477294922,313900
2025-07-08,158.61788810431491,160.2740678475626,157.58279268744894,157.7799530029297,342700
2025-07-09,157.66165312376677,157.74052026260657,155.8576218513925,157.46449279785156,252800
2025-07-10,156.93215349895374,158.08555716392323,156.0843505859375,156.0843505859375,361600
2025-07-11,156.31107345675375,156.31107345675375,154.40845469060778,155.66043090820312,292000
2025-07-14,154.91121519337966,156.6856880276844,154.46760074539523,155.32525634765625,276600
2025-07-15,155.50270521521296,155.7590120983507,151.8847603468732,151.97348022460938,254200
2025-07-16,151.73689710833995,153.4029296552156,151.37214976104823,152.7818603515625,261900
2025-07-17,152.5452588316346,154.1915706701163,152.31851019393284,153.81695556640625,397700
2025-07-18,154.62533756237983,154.98023213510643,152.72270372898328,154.16200256347656,243100
2025-07-21,154.20143682439874,154.44789098408017,153.03818041103906,153.2451934814453,205900
2025-07-22,153.8958333551263,157.09973737439896,153.0283099148117,156.9124298095703,449900
2025-07-23,157.7996815698846,159.55443403890214,156.88286424485372,159.36712646484375,450500
2025-07-24,159.11996916058192,162.4020082574344,157.96333091025235,159.9701385498047,431900
2025-07-25,160.19750774667867,161.22561221674488,158.94202169024894,159.14962768554688,296300
2025-07-28,159.35722424092228,160.12830639187274,156.35198291982778,156.88580322265625,308500
2025-07-29,157.23180681567746,157.7755224517839,155.4227248360997,157.0044403076172,388200
2025-07-30,156.98465159805863,157.11315522177728,153.14900170497543,154.99761962890625,580700
2025-07-31,153.99917438750097,155.55123391765005,153.4060273513415,155.3436279296875,679700
2025-08-01,155.17559628438335,156.31244400829624,139.47712391688526,139.73416137695312,1012300
2025-08-04,141.4838983520282,141.4838983520282,135.51295211602235,137.53952026367188,839000
2025-08-05,137.7471203907678,139.4573546226765,136.1159885271504,138.6170654296875,540800
2025-08-06,138.7060232610084,139.15087600319592,135.9775800358165,136.9562530517578,515300
2025-08-07,138.2018575966745,139.87254051260254,137.32203237332467,138.88397216796875,564000
2025-08-08,139.08169477744622,140.42614844511056,138.97295164681316,139.14100646972656,428700
2025-08-11,139.71437362843554,140.00105182700324,137.60871811175764,138.27105712890625,349500
2025-08-12,138.61705933663222,139.47710899953265,137.6383712108668,137.88551330566406,286100
2025-08-13,138.093132926373,139.82312776063122,137.6581603831194,139.813232421875,729900
2025-08-14,138.58740244327777,138.58740244327777,134.8802710493718,136.758544921875,875800
2025-08-15,136.7783310639517,137.36158282800585,136.2939270940797,137.13421630859375,770500
2025-08-18,137.30227391230105,137.97450831438334,135.77988510875218,136.31370544433594,529500
2025-08-19,136.68934510491053,138.91362381311117,136.68934510491053,137.99424743652344,333100
2025-08-20,138.3105996295714,139.6352775807112,137.6680211600025,139.56607055664062,519200
2025-08-21,139.02237682659523,140.27784781496257,138.6368357597722,139.03225708007812,270400
2025-08-22,139.6451775909557,141.69152157825582,139.57598564145147,139.813232421875,356500
2025-08-25,139.35848463440877,139.99116778923627,137.3714676366746,137.964599609375,245800
2025-08-26,137.4802014096915,138.5577372418402,136.43230633558758,138.11288452148438,442900
2025-08-27,137.49997281529963,138.96306488334525,137.44066112579765,137.84597778320312,729100
2025-08-28,138.56762766903606,138.56762766903606,135.8292890396428,137.30226135253906,320800
2025-08-29,137.57906986016718,138.27106476072905,136.76845157218256,137.6779327392578,370700
2025-09-02,135.84906508939116,136.94637659553402,134.6133546133004,134.85061645507812,310600
2025-09-03,134.5243943101381,134.62324210292473,132.9031426817368,133.67422485351562,382300
2025-09-04,134.79130216014153,136.8969425133348,133.49626493537275,136.87718200683594,401800
2025-09-05,137.43077574465525,139.21020178510477,136.0566663464884,137.03533935546875,440800
2025-09-08,137.00570288208334,138.39958806786993,136.10610193939624,136.71902465820312,616100
2025-09-09,136.67946624256135,137.88552093868483,133.55560145550504,135.48330688476562,637100
2025-09-10,134.57382046722492,135.88861824297987,133.30845412810189,134.69244384765625,685100
2025-09-11,135.18672513791338,136.6992335433112,134.31678014184178,135.53273010253906,477500
2025-09-12,135.05819131395336,135.48328351106477,133.674201778984,133.68408203125,261300
2025-09-15,134.41564821558472,134.6133588811563,133.09097016346266,133.30845642089844,298000
2025-09-16,133.2491099534109,133.871912788061,132.56701052064494,133.66432189941406,474800
2025-09-17,133.8719349467548,135.50308190645822,132.6560000017811,133.11073303222656,377400
2025-09-18,133.35786944137865,133.9608967611341,132.53737095397892,132.9624481201172,254800
2025-09-19,133.12062346030297,133.5555959668464,131.81570594067267,132.90313720703125,877200
2025-09-22,132.58677892796058,133.39741219498762,131.1533578735173,131.20278930664062,402100
2025-09-23,131.48947627590215,132.41873297707602,130.46137178622766,130.51080322265625,319700
2025-09-24,130.49103409799787,131.7860563410793,129.83857530726212,129.9967498779297,353300
2025-09-25,129.99674318999885,131.0050871706818,128.7808082948073,129.32452392578125,388700
2025-09-26,129.82869272268246,130.9161089366979,129.46292723339218,130.7777099609375,274400
2025-09-29,130.88645346701895,131.16325141933544,129.85834894189443,130.75794982910156,540600
2025-09-30,130.20434429084327,132.23089734514227,130.20434429084327,132.13204956054688,310400
2025-10-01,131.80581420869075,132.82403835835518,130.7974703117304,132.60655212402344,310100
2025-10-02,132.1320554290962,132.85370613455356,131.44006056877018,131.65753173828125,398500
2025-10-03,130.95565622479634,132.0529677443783,130.91610504183745,131.69708251953125,402000
2025-10-06,131.37085466398543,131.67730845586786,129.90777764901935,130.37240600585938,447100
2025-10-07,130.59976556964224,130.99518687665005,128.32605534345748,129.09713745117188,438800
2025-10-08,129.6803765561391,130.5008900185806,128.77089557092012,130.10546875,361300
2025-10-09,130.19444872342635,131.32141603944422,128.71159619791044,129.11691284179688,554200
2025-10-10,129.4431381350315,130.5008983927555,128.40513838295638,129.43324279785156,426000
2025-10-13,129.49258620457584,130.8370398948493,128.67207258406597,128.73138427734375,311400
2025-10-14,128.55343940983934,129.5617834901798,127.56487092285874,128.31619262695312,337400
2025-10-15,128.3161756767913,128.89942738681822,126.39835065189028,126.63561248779297,438300
2025-10-16,126.97171654630597,128.0195965446806,126.38845731965263,127.68348693847656,352700
2025-10-17,127.68349986264782,128.61275658450555,127.37704606806854,127.86143493652344,339700
2025-10-20,128.12834444492697,128.6028530293001,126.55652438869629,128.51388549804688,240500
2025-10-21,129.11692867987182,130.263671727181,127.64395622680965,129.077392578125,311600
2025-10-22,129.1564481138655,130.59976453326686,128.49410913348765,128.5731964111328,357500
2025-10-23,128.73197123448563,130.50805690169727,128.65259098954968,129.75396728515625,378600
2025-10-24,129.73411268037526,129.87302431778892,127.54127703952456,127.87864685058594,489300
2025-10-27,128.1366224648553,128.89071205489756,127.45198112404552,127.7794189453125,521700
2025-10-28,127.74964944095181,128.10685294985234,126.47959588491281,127.10470581054688,413500
2025-10-29,126.29107194406481,126.50936382227088,122.46106236313027,123.34414672851562,651100
2025-10-30,123.07624728804052,124.54474389238906,122.08401698830151,123.39376068115234,702600
2025-10-31,114.39423553008093,117.18240033192052,102.42794018569283,115.108642578125,2758200
2025-11-03,115.18801418737364,115.18801418737364,107.44862223530946,112.24109649658203,1661000
2025-11-04,113.47145606328911,115.0987131260131,111.65567282386979,113.29285430908203,1029100
2025-11-05,113.44168707726934,115.13839990799084,111.8938027289756,114.67205047607422,896900
2025-11-06,114.12632587945619,116.05125508565277,112.91581127124762,115.24755096435547,880300
2025-11-07,115.32692576494694,116.01155949259733,113.7988902652183,115.31700134277344,697200
2025-11-10,115.08879219606841,115.86273063108003,113.11425598749823,115.47576141357422,514000
2025-11-11,116.05125494853503,118.58144524090463,116.05125494853503,117.35107421875,484800
2025-11-12,117.42052991643766,118.74019803055835,116.99387815530137,117.24193572998047,547500
2025-11-13,117.3808436819808,120.93302228660532,117.3808436819808,119.26607513427734,679400
2025-11-14,118.8394216459119,119.75227929014665,117.47014653473461,117.68843841552734,521200
2025-11-17,117.56937122538191,118.56160156840677,116.65652112662708,118.41276550292969,820200
2025-11-18,118.73028226930452,119.1767828797841,117.14270772067383,118.38299560546875,817400
2025-11-19,118.5814455351289,118.5814455351289,116.79542796312874,117.08317565917969,598900
2025-11-20,117.08318073043249,118.68067219177061,116.45807833821543,117.65867614746094,507400
2025-11-21,117.21216086173891,121.29022793939164,117.21216086173891,120.57582092285156,509100
2025-11-24,119.91103668470342,121.44899676039621,119.50422617630296,120.5262222290039,740000
2025-11-25,121.45891525209124,123.11593804438662,121.45891525209124,122.48091125488281,543600
2025-11-26,122.06416725085363,123.55251268958358,122.06416725085363,122.84803009033203,538000
2025-11-28,122.66943052847252,125.10039933060551,122.66943052847252,123.78073120117188,315700
2025-12-01,123.90971816318398,123.9890984046682,122.07409360703122,122.32215118408203,536800
2025-12-02,122.80834273936739,122.8976474041654,119.86142506313116,120.65520477294922,325400
2025-12-03,120.50636459439258,123.29453683156571,120.46668204485655,121.11162567138672,543100
2025-12-04,121.25053931737644,123.11593712141129,120.9826404679227,121.07193756103516,708000
2025-12-05,121.0421717426921,122.55036603254122,119.6828210814482,120.96279907226562,537000
2025-12-08,119.98048683677486,121.15131890116776,118.37307858523162,119.13709259033203,496600
2025-12-09,118.67074319979267,118.91880077653559,114.46368881786525,114.82089233398438,640300
2025-12-10,115.2673979458709,116.88473826129054,114.23547747342825,116.25962829589844,734700
2025-12-11,117.04347933154511,117.74796190032998,116.24969967395411,117.09309387207031,389700
2025-12-12,117.5991381446397,120.69489957224027,116.73590258212603,120.5262222290039,656400
2025-12-15,120.53613763713133,121.508519071394,119.54390735802136,121.37953186035156,588600
2025-12-16,121.71688801826957,122.88772006482098,118.59136108661724,121.87564849853516,644800
2025-12-17,121.16124681536517,123.63189822994175,119.14702044648554,122.66943359375,567300
2025-12-18,122.70911937736454,123.15562755440962,121.08186229106413,121.66728210449219,457100
2025-12-19,122.38168448192317,123.36399795279324,120.31785116207733,120.44683837890625,1300400
2025-12-22,120.44683702770696,122.73888662712453,120.1293236305144,121.78634643554688,527800
2025-12-23,121.91534038479175,122.07409329724082,120.37738038293297,121.2406234741211,311700
2025-12-24,121.57798039532113,122.21300719710743,120.81396637664959,121.79627227783203,198000
2025-12-26,121.41922894554897,122.52060522415447,120.77427771310445,122.29238891601562,306000
2025-12-29,122.33208105068077,123.34415267923492,121.36961639767443,122.25270080566406,400200
2025-12-30,121.8458854019756,123.3342308707125,121.46883303835433,121.78634643554688,289800
2025-12-31,120.57582164498164,122.37176361957204,120.40714431232067,121.01240539550781,314300
2026-01-02,120.79411858954116,122.04433092844077,119.84157837851366,121.58790588378906,295100
2026-01-05,120.81396333104647,123.61205247154165,120.81396333104647,122.04432678222656,435700
2026-01-06,121.2703893294616,121.89549169761267,119.17678277613919,119.62328338623047,777200
2026-01-07,119.73243542753909,121.00248907397176,116.6962129559037,119.50422668457031,478500
2026-01-08,118.98826090452039,122.41146012961788,118.59136725333443,121.48868560791016,330000
2026-01-09,121.13148146291526,123.9990265337246,120.51629592819934,122.88772583007812,429100
2026-01-12,123.0365583546262,124.32646078477775,122.02448676997972,124.15777587890625,477300
2026-01-13,124.07840343065625,124.46537264637453,121.58790323017156,122.54044342041016,351900
2026-01-14,123.14570153346037,126.1720069370604,123.14570153346037,125.86441040039062,611700
2026-01-15,126.15215809530929,126.23153833510459,123.5525120178855,124.13793182373047,381000
2026-01-16,123.03655288156622,124.22722617172847,122.28245576040153,123.74103546142578,363400
2026-01-20,123.92956647771405,124.55466884396232,122.4809111423571,122.85795593261719,275100
2026-01-21,123.34415338455338,124.64398030125511,122.93734287422093,124.0387191772461,421000
2026-01-22,124.07840219082979,125.42783600604635,123.09608874217598,123.5029067993164,369700
2026-01-23,123.37391303470616,125.29884225734148,122.90757114819523,125.0210189819336,429500
2026-01-26,125.43775721229031,126.00332820078921,124.12801347207618,125.36830139160156,315400
2026-01-27,123.9791728132312,125.3186897727715,123.205234391347,123.77080535888672,303100
2026-01-28,123.23499911768216,124.09824219611878,122.29238336925172,122.73888397216797,347800
2026-01-29,123.32430960117436,124.30661551602421,121.63751348474041,122.88772583007812,386000
2026-01-30,121.9550286222896,124.03871071803064,121.70697104969861,123.97917175292969,512700
2026-02-02,123.23499750184895,124.93171793896286,123.23499750184895,123.860107421875,489100
2026-02-03,122.94725978548665,126.93602225021577,122.72896790883826,123.66165924072266,658700
2026-02-04,125.21552867481128,129.90700134775133,124.20949930267037,128.7216796875,589400
2026-02-05,127.16782066467043,128.5722782146923,121.48028130551128,123.49234008789062,2144200
2026-02-06,127.02836268310486,135.45509216979158,127.02836268310486,133.7816925048828,1045700
2026-02-09,133.05457384055362,139.02101804829903,132.72587004959905,137.9253387451172,1043400
2026-02-10,137.26793457923543,140.37565748193367,137.26793457923543,139.61865234375,622100
2026-02-11,138.48313331396238,139.99715874839507,138.05483198642824,139.4592742919922,584300
2026-02-12,139.60869173387061,141.44145054391814,138.84171623230802,139.95730590820312,572700
2026-02-13,139.9573151020267,142.3677944950846,139.85771755943315,142.01918029785156,471900
2026-02-17,138.71222079286514,143.055071512211,138.71222079286514,141.0928192138672,614700
2026-02-18,140.9135352437976,142.54708376856578,140.2860084572567,141.1625518798828,582000
2026-02-19,141.0928230678908,142.7562676088946,140.4752666602554,142.59689331054688,525500
2026-02-20,142.55704525117903,144.56910401516237,141.44145553591065,144.47946166992188,664500
2026-02-23,142.9255958993581,145.6647789342487,142.5670113304762,145.14682006835938,513500
2026-02-24,145.49544486452967,146.33213709933392,143.28417595914058,143.57302856445312,429800
2026-02-25,141.8498473766502,143.0949306198296,139.87762457633954,142.1187744140625,348900
2026-02-26,142.95547535989397,143.35389589996325,140.44538340090327,141.23226928710938,331300
2026-02-27,140.97329664666827,143.44353741820976,140.44538259466083,143.1447296142578,344600
2026-03-02,142.43751420451355,142.78614357053576,141.06293752550724,142.1088104248047,335000
2026-03-03,140.08679425249235,140.76412738697488,136.38142559574294,139.2102508544922,347300
2026-03-04,138.79191754238275,138.9612470419286,135.47501391314069,136.50096130371094,389000
2026-03-05,135.46505150535157,135.80371048641027,133.88130933030985,134.20004272460938,452300
2026-03-06,133.47291651624107,133.47291651624107,130.48471689274314,131.5604705810547,398500
2026-03-09,130.45484354440993,133.45299853256722,127.02837201579013,133.22390747070312,545700
2026-03-10,132.82547764917305,133.60240832546756,130.88313575966777,131.6102752685547,503100
2026-03-11,131.2815812945587,132.75575561111177,129.5284943463408,131.50071716308594,563800
2026-03-12,130.7536581494707,132.26766833775483,128.13399830193273,128.35313415527344,620600
2026-03-13,129.6380511924889,129.6380511924889,126.55025410703881,128.14395141601562,660600
2026-03-16,128.97069022910543,130.8931065380538,125.50438295551326,128.54238891601562,370700
2026-03-17,129.45876833048925,130.50464122844355,127.73557748644285,128.99061584472656,276700
2026-03-18,123.89075860801685,126.08210964583039,120.94240244020646,123.73139190673828,910500
2026-03-19,122.52615308632394,124.32903117833895,120.97228404186016,123.48237609863281,518500
2026-03-20,123.77123411184346,123.77123411184346,119.83676660084556,120.58381652832031,1481500
2026-03-23,123.02418368013113,125.84304628604973,122.50622481021608,123.65170288085938,455200
2026-03-24,122.67556308818467,124.72745780194329,122.38670286935901,123.66166687011719,405000
2026-03-25,124.94659356774676,126.07214606142944,123.22339504970952,125.3250961303711,337200
2026-03-26,124.72746089618293,126.83911722505529,123.6317891558115,124.19954681396484,442100
2026-03-27,123.45249678230496,123.72143142045898,121.28107129127055,121.51016235351562,381400
2026-03-30,122.07791483255923,123.45249154525831,120.62365857080745,122.87477111816406,562000
2026-03-31,123.90072145898677,126.46061226934556,123.1038651540704,125.52430725097656,557800
2026-04-01,126.83910993884153,128.13399948450484,125.83308820196113,126.25143432617188,380200
2026-04-02,124.64777023751822,126.5900970135599,123.76127159620845,125.51435089111328,297500
2026-04-06,124.0999305830527,125.6936431780852,124.0999305830527,125.51435089111328,461100
2026-04-07,124.82706080661809,126.6697824199569,124.30910953992999,125.11592102050781,376900
2026-04-08,130.86323514521675,132.1481543754263,127.64592907491694,131.50071716308594,645200
2026-04-09,130.70386349661462,131.91906599267529,126.83912013545304,130.88314819335938,424100
2026-04-10,131.7298075164679,132.178034445579,130.3353203595067,130.98275756835938,407400
2026-04-13,130.28551770076956,131.89914077103793,127.07818194963497,131.59036254882812,396300
2026-04-14,130.71381054193466,132.197955189354,130.45483870763653,130.4946746826172,315500
2026-04-15,130.29547082253353,130.51460669263554,128.0941721257409,129.14002990722656,407100
2026-04-16,126.40084558822308,129.81735412824597,126.40084558822308,127.78536987304688,393800
2026-04-17,129.14002424182965,131.7796097617975,129.14002424182965,130.11618041992188,401100
2026-04-20,130.05641512792803,131.47082778766443,129.1499909308814,130.405029296875,403600
2026-04-21,130.18589466096142,131.72980084865796,126.1916732788086,126.1916732788086,310200
2026-04-22,126.77935427393615,126.77935427393615,122.47634691200882,124.06009674072266,458900
2026-04-23,124.88682675562279,126.93872910578784,123.95052932532681,124.44856262207031,440800
2026-04-24,123.9206456254592,123.9206456254592,122.08787918491913,123.5919418334961,440900
2026-04-27,123.55209914216728,125.73348737793874,123.05406585359005,124.23938751220703,359700
2026-04-28,125.62392082821759,126.15183490401432,123.23335949687649,125.2752914428711,354300
2026-04-29,124.64776713863216,125.4047798425139,122.30701227202618,122.41658020019531,448400
2026-04-30,122.94449532386469,125.58407321741664,121.40058912214994,123.19351196289062,764800
2026-05-01,126.70962950793603,127.97463072857443,117.4362520229959,118.55184173583984,989400
2026-05-04,118.21317963909578,121.27110367417347,116.9979772200526,120.12562561035156,739600
2026-05-05,120.42445055667139,123.22339520339091,120.34476340674007,121.55000305175781,628600
2026-05-06,123.18000030517578,126.38999938964844,121.66999816894531,122.62999725341797,917000
2026-05-07,122.94000244140625,126.47000122070312,122.56999969482422,125.11000061035156,749700
2026-05-08,125.2300033569336,125.86000061035156,120.38999938964844,120.98999786376953,794900
2026-05-11,121.22000122070312,121.22000122070312,119.44000244140625,119.95999908447266,706100
2026-05-12,120.44999694824219,120.86000061035156,117.13999938964844,118.05000305175781,696600
2026-05-13,118.0,118.75,116.43000030517578,117.87999725341797,679500
2026-05-14,118.7300033569336,120.16000366210938,117.04000091552734,117.98999786376953,531000
2026-05-15,117.91000366210938,117.91999816894531,114.47000122070312,114.66999816894531,447000
2026-05-18,115.5999984741211,117.31999969482422,115.16999816894531,115.80999755859375,433100
2026-05-19,115.88999938964844,116.04000091552734,112.44999694824219,113.61000061035156,575800
2026-05-20,114.06999969482422,115.44999694824219,111.55000305175781,115.26000213623047,562600
2026-05-21,116.5,116.5,112.7699966430664,115.51000213623047,345600
2026-05-22,115.80000305175781,116.80000305175781,114.70999908447266,116.2300033569336,405800
2026-05-26,116.19999694824219,116.97000122070312,115.37000274658203,116.37999725341797,344500
2026-05-27,116.94000244140625,118.11000061035156,114.7300033569336,115.30000305175781,464000
2026-05-28,114.80999755859375,116.33999633789062,113.3499984741211,115.98999786376953,510100
2026-05-29,115.05999755859375,117.26000213623047,113.75,115.8499984741211,559600
2026-06-01,114.69000244140625,115.12999725341797,112.02999877929688,112.37999725341797,706800
2026-06-02,111.94999694824219,113.05000305175781,111.23999786376953,112.18000030517578,452400
2026-06-03,111.69000244140625,114.0199966430664,111.69000244140625,112.52999877929688,372600
2026-06-04,114.94999694824219,115.76000213623047,111.54000091552734,112.55000305175781,337600
2026-06-05,113.08999633789062,114.58999633789062,111.9800033569336,113.36000061035156,466300
2026-06-08,112.26000213623047,112.63999938964844,110.94999694824219,111.94000244140625,422200
2026-06-09,113.27999877929688,116.1500015258789,112.66999816894531,115.9000015258789,444400
2026-06-10,116.1500015258789,116.55000305175781,113.37000274658203,114.66999816894531,496800
2026-06-11,115.11000061035156,117.01000213623047,114.26000213623047,116.58000183105469,395200
2026-06-12,117.9000015258789,118.47000122070312,116.37999725341797,117.72000122070312,342600
2026-06-15,118.69999694824219,120.73999786376953,117.55999755859375,118.08000183105469,576100
2026-06-16,118.5,121.05000305175781,113.7699966430664,120.6500015258789,474700
2026-06-17,121.62000274658203,122.3499984741211,119.45999908447266,119.98999786376953,680500
2026-06-18,120.45999908447266,122.55000305175781,119.11000061035156,120.31999969482422,750600
2026-06-22,119.55999755859375,121.01000213623047,118.87999725341797,120.0,468400
2026-06-23,120.36000061035156,122.58000183105469,119.08000183105469,120.61000061035156,514100
2026-06-24,121.9800033569336,125.05000305175781,121.7699966430664,124.27999877929688,402400
2026-06-25,125.7300033569336,128.13999938964844,125.21530151367188,125.54000091552734,55188
