Date,Open,High,Low,Close,Volume
2023-08-07,116.12877958394868,117.0233360110985,115.9171629803137,116.66743469238281,140300
2023-08-08,115.50355672771177,116.77324907703569,115.14765539045683,116.50392150878906,270100
2023-08-09,116.50392686973844,118.68741033160472,115.92678795279474,117.1868667602539,287500
2023-08-10,117.15802764699855,118.86056714164329,117.15802764699855,117.57164001464844,216000
2023-08-11,116.87905804838567,118.52388628263004,116.87905804838567,117.9371337890625,226500
2023-08-14,117.37923848241954,118.30265045166016,116.94639164449069,118.30265045166016,145700
2023-08-15,117.95637129779684,118.24494075189612,117.33114971162514,117.43695068359375,249000
2023-08-16,117.09067434641418,118.46617500714814,116.85981585412429,116.90791320800781,291100
2023-08-17,117.31191625877085,117.98524258714839,116.98487770335657,117.00411224365234,186600
2023-08-18,116.75401425810986,118.71626752361922,116.75401425810986,118.59122467041016,443100
2023-08-21,118.45656631277183,119.71663785760668,118.36999253455805,119.06255340576172,358800
2023-08-22,119.14914137663143,120.91901284619402,118.08144446278298,118.26419830322266,429600
2023-08-23,118.36998351571141,118.85092771311135,117.64856721961151,118.68740844726562,305000
2023-08-24,118.7836111266511,120.67853268278533,117.91790999204319,120.34187316894531,278400
2023-08-25,120.78433122188993,122.81391641913827,120.21682056433897,122.67925262451172,493000
2023-08-28,122.76581404817435,124.64150083437637,122.76581404817435,124.47798156738281,331900
2023-08-29,124.85313882363003,126.93082164908694,124.46837459081131,126.79615783691406,472400
2023-08-30,127.32515422708775,128.18123425828122,126.68069080380738,127.8253402709961,298900
2023-08-31,128.20048010847904,128.63332693726338,127.20012266690522,127.50791931152344,305800
2023-09-01,128.0273554739826,128.69104615956167,127.46945842518569,127.4983139038086,252000
2023-09-05,126.66145382399552,126.95002327114638,122.50610368767913,122.70809936523438,325300
2023-09-06,122.91972673122726,123.13133602720143,121.39032026937542,121.59232330322266,291100
2023-09-07,121.47687760395863,122.32333668916188,120.370704561035,120.58232116699219,328600
2023-09-08,120.72661517649743,121.84240190476012,120.35147928747043,120.53423309326172,238800
2023-09-11,122.15020697473304,123.05438442733607,121.59231727500303,122.16944885253906,333500
2023-09-12,121.30374940797992,122.43877803875952,120.64004404886371,121.7077407836914,258000
2023-09-13,120.98631223028912,121.76543942444462,120.34184881441666,120.5919418334961,279300
2023-09-14,121.20756165253754,122.44839859285891,121.20756165253754,121.9289779663086,217900
2023-09-15,121.66927042883084,122.35221036140925,120.39957794288019,121.130615234375,589200
2023-09-18,121.5442225254737,121.5442225254737,120.15910083878411,120.8516616821289,175100
2023-09-19,120.89975538209652,120.89975538209652,119.33187259288644,120.53423309326172,218600
2023-09-20,121.04402623277237,121.2941192581564,119.81281032107518,119.88014221191406,206200
2023-09-21,119.5915970075996,119.61083154828877,117.5331562384029,117.56201171875,335700
2023-09-22,117.66781895592811,118.21609509335627,117.45620231716168,118.00447845458984,341200
2023-09-25,117.34077819162175,119.39921903192217,116.84059939153208,119.31265258789062,258800
2023-09-26,118.82208002776298,119.48578541206082,118.53351789357484,118.88941192626953,547000
2023-09-27,119.31264031088143,119.70701074637915,118.18723262251139,118.81245422363281,362400
2023-09-28,119.13950746199725,120.85166777851079,118.56237584297187,120.68814849853516,219300
2023-09-29,121.66927149003342,121.99631738853884,120.03406401338636,120.2745361328125,330900
2023-10-02,119.783963084746,120.69776148170621,119.26454246027548,120.28414916992188,244100
2023-10-03,119.29339878482428,120.53423572898005,117.82171067436374,118.1872329711914,236300
2023-10-04,118.84132265546667,119.90901943753225,117.66781755527735,119.49540710449219,208200
2023-10-05,119.23569473519102,120.16872773211533,118.11990791789228,119.03369903564453,466700
2023-10-06,118.8990326896935,121.86165089685026,118.6874160550928,121.59232330322266,491700
2023-10-09,121.02479420203984,122.37143938534139,120.89975135607021,122.10211181640625,275700
2023-10-10,122.3906804082069,123.70847018445957,121.68850597179858,121.71736145019531,322000
2023-10-11,122.66963195800781,122.83315123204267,121.82317277009818,122.66963195800781,212900
2023-10-12,122.37145501488276,122.54459523683002,120.29377235151563,120.64005279541016,189300
2023-10-13,121.19793811935457,121.842401584592,120.6208065484162,121.16908264160156,324900
2023-10-16,122.50611887985671,122.57345078072507,121.36146922646793,121.88088989257812,275200
2023-10-17,121.20754405224291,123.44873816422995,121.20754405224291,122.62152099609375,314400
2023-10-18,122.03477780825592,122.80428408635328,121.46725986473184,121.94820404052734,287300
2023-10-19,121.27488424535677,122.61190845722675,120.61117893923942,120.93822479248047,443900
2023-10-20,121.13061711466817,121.65965871645427,117.2830631776834,117.56201171875,446500
2023-10-23,117.08105478916937,118.46617640474612,116.59048966054829,116.86943817138672,379000
2023-10-24,117.47542865086069,119.05292505320921,117.08105821958665,118.63931274414062,312100
2023-10-25,118.15678039457973,119.45965936903156,117.63562733217842,118.098876953125,431300
2023-10-26,117.02761412299786,121.0134603739244,117.02761412299786,119.12187194824219,576000
2023-10-27,119.16045963942044,119.51754061287565,116.15900909641817,116.94073486328125,364000
2023-10-30,117.66456388692826,118.05060396077593,116.63191092316939,117.90583801269531,283100
2023-10-31,118.23397832287583,118.60071235470951,117.577712385893,118.00234985351562,422900
2023-11-01,117.847941489138,119.12186865336518,117.36539320930797,118.63932037353516,360500
2023-11-02,119.40173736847875,119.95184206610242,118.68756803683264,119.2666244506836,384300
2023-11-03,120.08696643881918,121.57321603943892,120.08696643881918,120.974853515625,278000
2023-11-06,120.89763669523624,121.3415875698335,120.39578974927271,120.8204345703125,173500
2023-11-07,120.27032287578463,120.62740385175842,119.83602505316294,120.20276641845703,205000
2023-11-08,120.52125543592591,121.10996492498091,120.06766623895945,120.75288391113281,175800
2023-11-09,121.30298351927328,121.30298351927328,119.73952451177246,120.04835510253906,118600
2023-11-10,119.90358602094061,121.39948852773999,119.56580372159614,121.3319320678711,195600
2023-11-13,121.01346298027089,121.10032550372696,120.02906768075303,120.18347930908203,183100
2023-11-14,121.55391115797988,123.39724915782807,120.936249936579,123.3875961303711,267400
2023-11-15,123.35864839876807,124.304446316357,122.90505181396026,123.25248718261719,388600
2023-11-16,123.19457641995044,124.13071389102679,122.41284320538445,123.09806823730469,217000
2023-11-17,124.07281379686883,124.57466814111162,123.15597499237893,123.46480560302734,162700
2023-11-20,123.00153562835392,123.19455932997084,122.01714052096224,122.8760757446289,213900
2023-11-21,123.0111977669835,123.82188264762816,122.76027061784326,123.44549560546875,160600
2023-11-22,123.96663690748125,124.69045924994556,122.91468530405523,124.08245849609375,174800
2023-11-24,124.46851389312098,124.46851389312098,123.62888453508685,124.04386901855469,65900
2023-11-27,123.35864729016578,123.82189689857947,122.42250240875883,122.56726837158203,367500
2023-11-28,122.56726027052797,122.57691329757223,121.10996243713889,121.22577667236328,218000
2023-11-29,121.25472106402746,121.9881964499266,120.55985042087056,120.99414825439453,331800
2023-11-30,121.07136390507863,122.69272646591232,120.45370267838986,122.46110534667969,301000
2023-12-01,122.00750584736005,124.05350585054758,122.00750584736005,123.62887573242188,218300
2023-12-04,123.00154595197841,124.38164160429274,122.4610942682931,123.93769073486328,192000
2023-12-05,123.77363433441964,124.1982791787773,121.48635282699652,121.59251403808594,178000
2023-12-06,121.9785577252861,122.85679915866584,121.48635640148973,121.95925903320312,179500
2023-12-07,121.83379146528237,122.6734281493362,121.59251731777178,122.07506561279297,254000
2023-12-08,121.94958406617164,123.04979339453348,121.23541477794234,122.8760757446289,265800
2023-12-11,122.81818541054639,123.22352418250709,121.93029101464404,123.11736297607422,338000
2023-12-12,123.19457459310557,123.6288724532248,122.2584297728089,123.03050994873047,210300
2023-12-13,122.7409634766871,124.48779301072071,122.7409634766871,124.10174560546875,425000
2023-12-14,124.57467068526118,125.47220345317041,122.45145375097674,122.95330810546875,412900
2023-12-15,122.72167704235878,124.09211233389199,121.57320982713335,121.5828628540039,713000
2023-12-18,122.28738762368339,122.76993591705903,121.48635568953519,122.61552429199219,240500
2023-12-19,123.25247352791789,123.65781965517932,121.63111110817805,121.82413482666016,659100
2023-12-20,121.62145477599356,122.5093491306757,121.08100310513626,121.18716430664062,346400
2023-12-21,121.83378081634912,121.83378081634912,120.49229726249135,121.51530456542969,421900
2023-12-22,121.98819919110086,122.6058603626526,121.71797334893472,121.86273193359375,312200
2023-12-26,121.73728030157127,122.44180403483686,121.20647424478882,121.43810272216797,274700
2023-12-27,121.71797248147908,122.05575478177946,120.66601347414141,120.90728759765625,283100
2023-12-28,120.61777069727657,121.40914957794178,120.05801292816882,120.83008575439453,343600
2023-12-29,120.82044581458585,120.98451046958296,119.2473336428409,119.30524444580078,313500
2024-01-02,118.33049161771078,119.76848345240212,118.02166100831862,118.591064453125,313100
2024-01-03,120.78182769015574,122.81818188143322,118.85163470226065,120.9844970703125,531700
2024-01-04,120.81079207973853,121.52496149850643,119.79743770955358,119.8843002319336,353300
2024-01-05,119.45964384127878,120.02905460628045,118.69721672111496,119.86498260498047,423000
2024-01-08,119.73953213187556,120.79149123065565,118.09887089459961,120.00975799560547,352400
2024-01-09,119.39208886536294,120.28962891792202,118.67791950665958,120.27997589111328,250300
2024-01-10,120.11591087750575,121.04240264450908,119.89394280330917,120.8204345703125,279600
2024-01-11,121.0038017297732,122.53830905966294,120.57916425839741,122.412841796875,323100
2024-01-12,123.42620632136199,123.50341581821841,121.52496479911424,122.01716613769531,231700
2024-01-16,121.48635575334917,122.39354890156476,121.1292747284493,122.38389587402344,257500
2024-01-17,121.54425926799404,122.82783205612957,121.4960014962835,122.26808166503906,336900
2024-01-18,122.87609292611428,125.47219764873277,121.90134334518042,124.632568359375,444200
2024-01-19,125.1826751057687,126.87159400250694,124.05349922717551,126.23462677001953,418000
2024-01-22,126.33112146870488,127.20936278677414,126.00299220465814,126.61100769042969,266200
2024-01-23,127.19973175247551,127.24798952655084,125.78103860665047,127.22868347167969,217800
2024-01-24,127.50853481683981,127.67259944176305,125.98368069989095,126.2153091430664,294400
2024-01-25,127.42170423136226,127.75949393532106,125.82930071545499,126.66893005371094,332300
2024-01-26,127.08391965169312,127.96216113643406,126.81369376811224,127.10322570800781,219900
2024-01-29,126.47592015710919,127.96216253302498,125.93546838404889,127.634033203125,187800
2024-01-30,127.4217107599647,128.44471086271545,127.03567798669486,127.634033203125,228400
2024-01-31,128.14711126677335,128.53435928082044,125.03952535355248,125.73655700683594,537500
2024-02-01,126.29804406272626,126.92730171682662,125.47515503321043,126.33676147460938,298800
2024-02-02,125.81399845204739,126.54007181280666,124.58451009166825,125.94953155517578,344800
2024-02-05,125.01049634153883,127.25647596394337,123.96494875503913,126.48199462890625,319500
2024-02-06,126.31739050105034,127.20803865994195,125.17504224464571,126.94666290283203,369700
2024-02-07,127.21774119888832,128.19551470320488,125.24281332521821,127.59529876708984,393000
2024-02-08,127.44039987265825,130.53831002584943,127.3435841792457,127.90508270263672,620700
2024-02-09,127.89540969408253,134.7689104528772,127.31454506556426,134.52688598632812,650900
2024-02-12,134.72051017566284,135.98871608812559,133.12313974347538,133.21995544433594,491300
2024-02-13,132.32930021222504,132.9488822581375,130.67384635486445,131.59353637695312,275900
2024-02-14,131.91303358615116,133.07476305152232,130.85781026804267,132.79400634765625,335000
2024-02-15,132.7939558437664,133.41353776272464,130.2769107607478,130.73190307617188,471400
2024-02-16,131.05139603090558,133.5974980024858,130.7319219804335,133.1134490966797,453900
2024-02-20,132.76495920474014,135.66925320639436,132.58101822111487,135.23361206054688,373000
2024-02-21,134.6430432067918,135.6401827546635,134.5559179504535,135.53369140625,276300
2024-02-22,135.9887045298492,137.87649236016304,135.60147130332354,136.95680236816406,295700
2024-02-23,137.4408822019576,137.51833181908364,136.11459259218358,136.850341796875,190300
2024-02-26,136.9858566979064,137.52798917361454,136.30819110327124,137.3924560546875,199200
2024-02-27,137.39245476737844,137.64415490816972,135.34009190799827,135.8338165283203,244600
2024-02-28,135.194869665944,136.7341565973834,134.88508601058652,135.93063354492188,189600
2024-02-29,136.1436245676808,137.11172255417472,135.36914322408506,135.9790496826172,250600
2024-03-01,135.41751376903366,136.2984714673089,135.1077154081465,135.81442260742188,151400
2024-03-04,136.20169440578695,137.5860672968912,136.07583695314057,137.43118286132812,260300
2024-03-05,137.73128791076408,138.64130227082694,137.21819722213309,137.9733123779297,190200
2024-03-06,138.37018945312875,139.05754528147227,137.93454846682545,138.5057373046875,184000
2024-03-07,139.8901458387967,140.5097279007667,139.25119768276474,140.0353546142578,250100
2024-03-08,140.09342907633237,140.44194485018238,138.40893370739082,138.5251007080078,185200
2024-03-11,138.23467236717613,138.80586127112414,137.4505155467045,138.186279296875,226700
2024-03-12,138.24436356711726,138.2927714096869,136.9664674288769,137.86680603027344,242200
2024-03-13,138.43800441506068,138.43800441506068,136.43403460324666,136.65670776367188,336800
2024-03-14,136.85031074719467,137.10201086674357,135.88221291077477,136.43402099609375,235200
2024-03-15,135.57242007632507,137.86682208776077,135.2820025310812,136.50180053710938,599500
2024-03-18,136.43399733477477,136.79220351708804,134.4978019977233,134.81727600097656,299700
2024-03-19,134.44943456936542,135.84349784138894,134.44943456936542,135.059326171875,253000
2024-03-20,135.1754889932736,135.6014543524043,134.7011157938783,135.504638671875,220000
2024-03-21,135.83380611845956,137.08266060945118,134.85603261400937,136.6373291015625,255800
2024-03-22,137.4795668432542,137.90553224987627,136.5502012033519,137.07296752929688,276000
2024-03-25,136.69539997271303,139.45448448167053,136.66635822183974,138.39926147460938,316300
2024-03-26,138.273400364292,139.7061808666231,138.07009334158332,138.631591796875,314200
2024-03-27,139.0866217188061,140.5194024560872,139.0866217188061,140.0450439453125,218200
2024-03-28,140.1999450522203,140.71303575776633,139.06725750918295,139.2996063232422,247800
2024-04-01,139.20277226974468,139.20277226974468,137.58605076159364,137.75062561035156,204400
2024-04-02,137.31503671804268,137.31503671804268,135.9112973685674,136.14364624023438,202600
2024-04-03,136.18232831953642,136.6857433581489,135.40784705367142,136.38563537597656,258700
2024-04-04,137.30530909164867,138.19595727130007,136.47274441493107,137.2278594970703,403600
2024-04-05,136.86968595043953,138.20565100866335,136.45339617162944,137.20851135253906,288300
2024-04-08,137.15041706598697,137.83777302127123,135.91125303201014,136.0274200439453,312500
2024-04-09,135.9403078901939,136.59862215595857,134.91412646050384,135.8338165283203,242600
2024-04-10,134.54626618216517,135.74671311179145,134.03317538472913,134.95286560058594,200700
2024-04-11,134.8173099688125,135.57242515875745,134.03315302325444,134.69146728515625,265300
2024-04-12,133.76206933999157,134.5171844314302,131.62258150491544,132.82301330566406,299200
2024-04-15,134.18804610778258,135.3497605952717,133.4329309523146,133.79112243652344,319600
2024-04-16,133.39420463004214,134.94316719612974,132.97792961895718,134.16868591308594,281700
2024-04-17,134.44940820758697,135.03025794237436,133.93631762779228,133.98471069335938,565400
2024-04-18,133.97507218918878,134.99157797196605,133.81049731342517,134.67210388183594,246600
2024-04-19,134.62369389699214,135.4562586960129,134.34295200090463,134.89476013183594,276600
2024-04-22,135.09808150736472,136.64702947458002,134.80764914726078,135.84352111816406,298800
2024-04-23,135.31101172472623,136.65666685787943,135.0689873139289,135.6788787841797,417200
2024-04-24,135.88283187941434,136.8052204354619,135.58184333310518,135.9410858154297,559200
2024-04-25,135.7759789653954,137.14500522813296,134.88271770033433,136.10609436035156,694400
2024-04-26,137.87323164710924,144.19403432783037,137.77613189586884,139.16458129882812,489500
2024-04-29,140.68896186966708,143.71829961506626,140.17436572617285,142.12596130371094,676700
2024-04-30,141.50454336149315,141.85408171786466,139.8733594266455,140.18406677246094,585100
2024-05-01,140.77634869572992,142.9318328954004,140.37826043918207,141.15501403808594,359600
2024-05-02,141.52395235638076,142.46576363326017,141.06761019890962,141.67930603027344,356500
2024-05-03,142.83474149980546,142.85416441513408,140.6307072933261,142.54345703125,303300
2024-05-06,143.46584874866832,144.74749451317692,142.88329461371845,144.70864868164062,260200
2024-05-07,144.00958866873592,146.00971937546657,144.00958866873592,145.368896484375,392900
2024-05-08,145.36890993029817,146.48548325246907,145.1358793623441,146.40780639648438,223500
2024-05-09,146.6116974972741,147.32047837661355,144.31057824435283,144.74749755859375,299100
2024-05-10,144.62126017257594,144.6698100517693,143.78625262261644,144.1746368408203,186300
2024-05-13,144.21345462568132,145.1358429843686,142.59198955369928,143.5726318359375,167500
2024-05-14,143.99016035248064,143.9998644024627,143.184279743667,143.60177612304688,137600
2024-05-15,143.66003210063693,144.02897856662815,142.5046131956969,142.99978637695312,211100
2024-05-16,143.0871700529018,143.60176615776547,142.17448569624776,143.25222778320312,235500
2024-05-17,143.5532250739488,143.86391760755848,142.85414835414977,143.37844848632812,169500
2024-05-20,143.30077614301211,144.09695263816212,142.7667571298435,143.86392211914062,163400
2024-05-21,143.64060931065208,144.35909414501361,142.81530585917272,144.27171325683594,280400
2024-05-22,143.76686506207298,144.50477295906495,143.1842960592116,144.46592712402344,283300
2024-05-23,144.3396862943476,144.62125187296155,143.27164827475897,143.427001953125,171700
2024-05-24,144.1649049429506,144.50473925123936,143.07745886097342,143.78623962402344,162300
2024-05-28,143.32990795502417,143.48526163962768,141.58223085693479,142.4463653564453,318400
2024-05-29,141.41714913451602,142.43663725250155,140.3102801303625,140.6306915283203,229700
2024-05-30,140.91228668269574,142.70851373087208,140.78605995699684,141.89292907714844,328100
2024-05-31,141.84435070072382,143.53378841432811,141.67929299315438,143.39785766601562,358900
2024-06-03,144.18433298516325,144.18433298516325,142.0288488421779,143.85421752929688,266200
2024-06-04,143.3590315880983,144.07753125118836,142.43664318212836,143.8833465576172,287900
2024-06-05,143.4269853761024,143.8930315419935,142.80558554980078,143.6211700439453,229200
2024-06-06,143.70859743356854,143.70859743356854,141.17444743738662,141.7181854248047,197600
2024-06-07,141.53369124615435,142.07741436636817,141.22298385440706,141.32008361816406,179100
2024-06-10,140.62099421122554,141.57250958640344,139.80540960393014,141.35890197753906,125800
2024-06-11,140.6986648827164,141.50454540530546,140.15494183502784,141.27151489257812,147700
2024-06-12,141.9900224631697,142.05798044025738,139.88308812796836,141.59193420410156,221300
2024-06-13,141.6501881317032,142.27158805169188,140.805476550794,141.59193420410156,232400
2024-06-14,140.87341987566188,141.15500025023965,139.5043934580447,140.54330444335938,141500
2024-06-17,140.65981624752195,142.4172120684738,140.3685466316063,142.077392578125,303800
2024-06-18,142.22303735719075,143.39787921333664,142.2133333077604,142.42694091796875,219900
2024-06-20,142.3977825431952,143.24249393292303,141.43654850929366,141.57247924804688,199900
2024-06-21,141.63076047927734,142.86385622851674,141.0870374193948,142.58229064941406,444100
2024-06-24,142.94153910100914,143.92218146002028,142.4075200677485,142.45606994628906,182900
2024-06-25,142.52400422223266,142.53372308553023,140.30056238212384,140.6501007080078,194500
2024-06-26,140.05783894105218,140.58213906374502,138.80533514968837,139.53353881835938,192400
2024-06-27,139.68890380859375,139.69862267447957,138.13541124732973,139.68890380859375,377300
2024-06-28,139.60150714084187,140.12582211775148,136.01874245488284,136.7178192138672,435100
2024-07-01,137.27127014880173,137.36835509564582,134.36815911737452,134.5137939453125,306400
2024-07-02,134.45554794058185,136.41684769271666,133.75647109458023,136.3197479248047,259400
2024-07-03,136.78577507852356,137.29065226337735,136.48478661419202,137.1158905029297,143300
2024-07-05,136.89258674062816,137.32950598220694,135.66919508579755,136.80519104003906,207000
2024-07-08,137.53340696834337,138.35871046567937,137.38777214662196,137.39747619628906,249300
2024-07-09,136.76637614080624,137.1644644187289,135.6886339831031,135.97019958496094,238400
2024-07-10,136.65955303485114,137.51398340041877,136.48479126844396,137.18385314941406,142000
2024-07-11,137.09649774945188,139.13547429525167,136.65957843687883,137.96063232421875,244500
2024-07-12,139.24225471520856,141.26180800557879,139.24225471520856,140.38795471191406,263900
2024-07-15,140.55302268784044,141.45600300897715,138.98010738595784,139.2616729736328,319900
2024-07-16,139.66949821673376,141.07735596844665,139.66949821673376,140.35885620117188,178800
2024-07-17,140.14520872276645,141.5336579783451,140.14520872276645,140.6501007080078,242300
2024-07-18,140.40737409059614,142.97065035321154,140.39767004209162,142.02883911132812,434200
2024-07-19,142.3298497313873,142.3298497313873,140.45594581987174,141.69874572753906,251200
2024-07-22,141.74727638845377,143.27164169328665,141.02877677052334,142.9123992919922,235700
2024-07-23,143.57262555200967,144.19402540159166,141.4365644950304,141.79580688476562,234500
2024-07-24,141.82498394212112,142.36870709384863,139.71803450615988,139.95106506347656,250600
2024-07-25,139.11343221874438,140.30168787194964,137.54532532307127,137.8083038330078,558100
2024-07-26,139.40562054037346,147.35327797180082,138.64591810105864,142.84376525878906,562800
2024-07-29,142.76584597383152,144.4897929937424,141.39253199421196,143.9541015625,390900
2024-07-30,143.54501837821707,144.05147671755117,141.62627871162664,141.95742797851562,411000
2024-07-31,142.687920277237,144.9767768202367,141.62628675803276,143.15542602539062,280600
2024-08-01,143.05804117385702,145.64881403519908,141.64575972559882,143.20413208007812,335300
2024-08-02,142.7658734897668,143.17494297199187,140.00951055934578,141.89903259277344,213500
2024-08-05,139.69780574748174,139.69780574748174,135.85059153457982,137.0193634033203,448500
2024-08-06,137.65246713764915,142.28860227483594,137.43819054803106,141.15878295898438,476000
2024-08-07,142.21065060341132,143.4281242007132,139.73675079285874,139.86337280273438,353600
2024-08-08,140.70103177550166,142.35679332552462,140.70103177550166,141.77239990234375,268600
2024-08-09,141.6263160680969,141.6263160680969,139.7367940818522,140.2042999267578,263200
2024-08-12,140.22376060481798,140.42828787630694,139.05498875394557,139.5614471435547,221100
2024-08-13,139.7757349256636,141.51916583268488,139.37641479063032,140.6133575439453,212000
2024-08-14,140.37957392769894,141.04187240037115,139.7562280691743,140.15554809570312,115700
2024-08-15,141.22695417806543,143.5060614579835,141.22695417806543,143.1846466064453,277500
2024-08-16,142.30807861002003,143.01907915033655,141.8210890883735,142.90220642089844,250600
2024-08-19,142.51262572122243,143.88592492526362,142.12302517326572,143.1457061767578,191200
2024-08-20,143.1554262192904,144.45082004519588,143.1554262192904,144.2560272216797,387200
2024-08-21,144.31447092085256,145.6780504782827,143.6229541329459,145.4442901611328,267300
2024-08-22,145.67805355296156,146.48644308563473,144.8014634914536,145.11314392089844,200400
2024-08-23,145.7657034384913,146.6130604286141,145.5514268655365,146.52540588378906,221400
2024-08-26,146.75914391028522,148.69736740875544,146.23320180620857,146.252685546875,235500
2024-08-27,146.10660272585045,147.59678959341667,145.94102805853666,147.26564025878906,208300
2024-08-28,147.00265865265132,148.01560524076524,147.00265865265132,147.59678649902344,249000
2024-08-29,148.58049863148904,148.9311316640923,147.27537034525355,148.31752014160156,187100
2024-08-30,148.23959762370004,149.4473369078232,147.69417177336692,149.20384216308594,178500
2024-09-03,148.15194689459446,148.41492538696468,145.83387210929124,146.13580322265625,362400
2024-09-04,145.70725993860023,146.97342071092024,145.70725993860023,146.80784606933594,175800
2024-09-05,147.1487592794206,147.81105791158635,146.04815817755215,146.79812622070312,200600
2024-09-06,146.46697415286368,149.13566723576417,146.46697415286368,148.41493225097656,319100
2024-09-09,148.599998351621,149.07723859888472,147.49939721337483,147.95716857910156,241500
2024-09-10,147.9181836882304,148.8142425709734,147.4993798583381,147.5675506591797,158100
2024-09-11,146.86627610856456,146.9539455070627,144.762492917651,146.91497802734375,178000
2024-09-12,146.96369468322857,148.05454643692235,146.06763576244578,148.005859375,200400
2024-09-13,148.22986559888577,149.02852064652984,147.9474033678148,148.31752014160156,138600
2024-09-16,149.05773552118288,149.18435754345714,148.11298958996787,149.00904846191406,182900
2024-09-17,149.99278031830573,151.52193462791402,147.91820009450953,149.0480194091797,259900
2024-09-18,149.75900813476628,151.4440025327287,148.73634205746214,149.08697509765625,214200
2024-09-19,150.98625109226774,154.67762550954814,150.98625109226774,152.81732177734375,412400
2024-09-20,152.2426587848195,152.2426587848195,150.4602753884125,151.8530731201172,663300
2024-09-23,152.1063064527266,152.82705629994214,150.71352354488388,151.9017791748047,315800
2024-09-24,152.1160493204721,152.99263943106746,151.96995839957702,152.55435180664062,246200
2024-09-25,153.2069113857245,153.76207173006424,151.81411358113382,153.0510711669922,284100
2024-09-26,153.8302663844023,154.92111825576467,153.59650604264948,154.25881958007812,371600
2024-09-27,154.55100141706893,157.3463316298126,154.1419319653425,155.72952270507812,354300
2024-09-30,155.14513832931164,156.24573956759423,154.7945052271349,156.021728515625,289800
2024-10-01,156.36259442762125,156.36259442762125,154.9113751149142,155.80743408203125,192200
2024-10-02,155.70027309577677,155.94376782945204,153.84971906454047,154.61915588378906,186900
2024-10-03,153.87896779578838,156.28469743108852,152.56409002818182,154.8042449951172,367000
2024-10-04,155.77818912671566,157.2683756689615,155.18406139759068,156.4015350341797,350500
2024-10-07,155.24251230852914,155.486007058675,153.89841653196711,154.56072998046875,223300
2024-10-08,154.16142373790407,154.88217368281096,153.0121354367815,154.54127502441406,205900
2024-10-09,154.22958607287964,155.8853474593437,154.00556019446944,155.54444885253906,152600
2024-10-10,153.93738118810276,155.2327750185027,153.93738118810276,155.07693481445312,168500
2024-10-11,156.75218568056042,157.70668095780067,156.17754162622376,157.3463134765625,194400
2024-10-14,160.6968029731812,163.394714143239,159.20661626974442,162.8395538330078,469700
2024-10-15,162.96617430440529,165.2452816100452,162.15776994657773,164.290771484375,397300
2024-10-16,164.31025487859057,164.79724438022347,161.6025944384509,161.71946716308594,330000
2024-10-17,162.63502251682706,163.94016577814568,162.18700046287847,163.52134704589844,238200
2024-10-18,164.69986730082573,164.69986730082573,163.414207789957,164.24209594726562,171500
2024-10-21,164.0862524476999,164.1057361900711,161.97271968352462,162.00193786621094,217900
2024-10-22,161.40781358966652,162.0408940440798,160.52148906409494,161.49546813964844,228500
2024-10-23,162.17724687078498,163.6089972685699,161.83636311905678,163.28758239746094,318100
2024-10-24,164.38138841449273,164.3911490539813,162.26215240803288,162.65280151367188,547300
2024-10-25,164.96731068659886,165.8755566583388,160.75816603816062,164.95755004882812,518900
2024-10-28,165.92438047989975,167.39905642975634,164.81105676436079,165.1431121826172,350000
2024-10-29,165.07475181943673,165.52399452591067,163.7172779631245,164.75247192382812,338100
2024-10-30,164.4107021299758,166.2174041358462,164.18607328299754,165.0747833251953,290300
2024-10-31,165.13333821190827,166.29549493250488,163.93212403677143,163.98095703125,329900
2024-11-01,164.16654807832185,166.98892289403057,163.69776911458624,165.44589233398438,316300
2024-11-04,165.66073715780885,166.57874395431327,164.24465460053625,164.32278442382812,191800
2024-11-05,163.81495853194275,166.37364684373878,163.81495853194275,166.32481384277344,206200
2024-11-06,171.05156441416634,171.05156441416634,168.1120023975292,169.10813903808594,264100
2024-11-07,170.12378096512896,171.35430696476374,169.47922114643825,170.62185668945312,412300
2024-11-08,170.61208381104976,173.67860841546667,170.4070060757364,171.64727783203125,309200
2024-11-11,172.19417237187216,173.86415054303177,171.7839871315732,172.02813720703125,189100
2024-11-12,172.5164361229937,173.09264162227078,170.85621860211134,171.5886688232422,179800
2024-11-13,171.39337158203125,172.26254534897026,170.95390437883552,171.39337158203125,168400
2024-11-14,171.05155682058597,171.67658049046,169.8405818424337,170.02613830566406,198200
2024-11-15,168.92257425336157,169.69408202115162,162.28168847937133,162.59420776367188,620500
2024-11-18,162.4965371683572,163.89308346527008,160.4847427631967,162.78952026367188,384400
2024-11-19,162.52583437609178,163.74658485803732,162.31098109913023,162.99459838867188,287600
2024-11-20,163.0922846123704,164.98689197957114,161.77386796768175,164.78179931640625,221800
2024-11-21,164.74271987680694,166.24667789967594,163.81495249958823,165.90487670898438,205100
2024-11-22,166.19783911675128,168.04362806955587,166.19783911675128,167.49671936035156,241600
2024-11-25,168.02407961131303,169.94798333738404,167.72133591157126,168.4635467529297,270100
2024-11-26,168.81514749207574,168.81514749207574,167.1549297751935,168.0143280029297,140300
2024-11-27,168.6296004490124,169.81129356804752,167.50651587532045,167.7115936279297,167200
2024-11-29,168.5514742252474,169.43042360328997,168.06317398247072,168.91282653808594,117300
2024-12-02,168.93233680546206,169.05929962886407,166.84241249869427,168.7174835205078,170900
2024-12-03,169.39132382716835,169.39132382716835,167.0865464581629,168.3658905029297,160100
2024-12-04,167.86785056164098,168.84445101051938,167.02797357953594,168.5514678955078,173400
2024-12-05,167.98502374389864,168.40496965056505,166.5396593733903,167.09632873535156,245000
2024-12-06,167.58463897320985,168.61005749857284,166.85218865409922,167.14515686035156,209200
2024-12-09,167.5455502695353,169.41086047668688,166.24667004212424,166.79356384277344,301700
2024-12-10,166.72521015388972,167.3599944100707,164.25441250187913,166.9107666015625,287000
2024-12-11,167.85806889036164,170.02612280736926,167.73110607935809,168.2779998779297,418600
2024-12-12,167.65298456324717,168.5612306607672,166.78381082569527,167.62368774414062,178300
2024-12-13,166.91080015963254,166.99869063091506,165.84630915834467,166.2174072265625,153200
2024-12-16,166.158796503823,166.9303042864774,163.66846242787886,163.70753479003906,236100
2024-12-17,162.99458751218418,163.00436305250057,159.02959259568405,159.27374267578125,511900
2024-12-18,159.85971564038562,160.57262973216018,154.21496674015316,154.50794982910156,468600
2024-12-19,154.80093483209816,157.78934478191135,154.5274878931726,155.1525115966797,404700
2024-12-20,155.00601023435632,156.0412042310304,153.7852597851201,154.4786376953125,730200
2024-12-23,153.49231322087718,155.18182807215794,153.28723544158044,154.81072998046875,194900
2024-12-24,155.06460748481138,155.6896311333145,154.2247305600973,155.62127685546875,100500
2024-12-26,154.71303442348506,155.89472747069453,154.71303442348506,155.1329803466797,164500
2024-12-27,154.1270910423129,155.84590247939389,153.92199838988887,154.44935607910156,145000
2024-12-30,153.3262778591197,153.80481746674624,151.37307686728377,153.06259155273438,221700
2024-12-31,153.59971586271843,154.54701948074276,152.52544941905987,153.42393493652344,317100
2025-01-02,153.96104492700826,154.4102876614351,149.8593262852289,150.55271911621094,239400
2025-01-03,150.43554576625897,152.07624247843862,149.2929248836167,151.86138916015625,250700
2025-01-06,150.39645072499704,151.0214743397327,147.89635626605445,149.3417205810547,369000
2025-01-07,152.27152292122494,152.408246372483,149.02921754778856,149.83978271484375,361200
2025-01-08,149.31245742221395,150.65039540651844,148.53117400223823,150.54296875,228600
2025-01-10,149.14641510020002,150.6894455288929,149.00969163951783,149.8593292236328,350800
2025-01-13,149.351489060231,151.08007590647148,149.351489060231,150.28903198242188,349300
2025-01-14,151.18750459843608,151.81252825447513,149.8886242863141,150.9921875,196900
2025-01-15,152.46686153360938,153.2481448947014,150.56249358589434,151.9199676513672,206100
2025-01-16,152.24223989964935,153.49228725350105,151.67580986403843,152.7500762939453,346300
2025-01-17,153.29697420180517,154.25403847264764,152.03715127326387,152.43756103515625,231900
2025-01-21,153.0528143054371,156.50997312910235,153.0528143054371,156.0900421142578,270900
2025-01-22,155.61149546068765,156.98850552412839,154.63489511528093,155.3478240966797,280000
2025-01-23,154.7521187567618,156.07052046490324,154.0391896764672,155.8849639892578,149800
2025-01-24,155.9142573921176,156.7150769217103,153.54112542846482,154.59585571289062,329600
2025-01-27,154.54702831099388,155.20134885433862,152.98446155852756,154.7521209716797,317000
2025-01-28,153.88294176224863,156.59788985115384,153.88294176224863,154.71304321289062,204300
2025-01-29,155.0646061385479,155.10367849846844,152.95514575501196,153.43368530273438,265800
2025-01-30,154.1270963205914,154.96695843542625,152.9161063496536,154.42984008789062,274200
2025-01-31,154.20518277543422,155.66032259995123,153.09185901964062,153.4727325439453,834100
2025-02-03,150.96288932286944,153.0821103704106,150.53318276913035,152.3301239013672,364600
2025-02-04,152.43754527468874,154.7520982407055,152.43754527468874,154.00987243652344,302400
2025-02-05,155.01867714973034,156.3702473610244,154.52897953049455,155.057861328125,262600
2025-02-06,156.54649741836073,156.54649741836073,152.16860045521503,153.22634887695312,446600
2025-02-07,154.37226642227148,154.64649588233073,139.11328743464438,140.22979736328125,1221500
2025-02-10,141.28754664505917,141.6205523719065,137.99677816426612,140.32774353027344,621900
2025-02-11,139.33856189367694,140.12208105720353,137.36996794046337,139.35813903808594,377300
2025-02-12,138.06533442672804,140.53341437012955,137.04675510972507,138.78028869628906,423500
2025-02-13,139.80865498326042,140.8174307728779,138.54524183950096,139.8282470703125,665900
2025-02-14,140.72929960574803,142.31591505799216,139.7792850599418,141.80662536621094,512800
2025-02-18,141.80661410840983,144.2551019301506,140.93495304164546,143.87313842773438,489600
2025-02-19,143.12880426353559,144.45099367199094,142.6097260381441,144.01025390625,331000
2025-02-20,143.94171731007287,144.38244217212826,142.91334933568692,143.65768432617188,283100
2025-02-21,144.00044619853725,144.3530289976447,142.2081515484395,143.3246612548828,451900
2025-02-24,143.16800404406814,144.2551334724038,141.38551229116783,142.60975646972656,353300
2025-02-25,142.8741632870377,145.27367831527678,142.7174564829414,144.6664581298828,336700
2025-02-26,143.6283035869074,146.10617230747383,143.59892292574537,143.61851501464844,735600
2025-02-27,143.21696167310282,144.1473841616562,142.36489259702773,142.62933349609375,262800
2025-02-28,143.14840249829248,143.92211811173567,141.64992907469428,143.7262420654297,348700
2025-03-03,143.9417092483485,145.7731734330009,142.6880846270143,143.5695343017578,394100
2025-03-04,142.54115535917794,144.90150112160728,142.14940329945776,142.93292236328125,490100
2025-03-05,143.0406700510276,145.78297956351986,143.0406700510276,145.3814239501953,445100
2025-03-06,144.51952840338762,148.37834721716624,144.02983088781943,148.03555297851562,471700
2025-03-07,147.40875736971992,150.20003950079644,146.10616003817648,149.63198852539062,480200
2025-03-10,148.93660655516885,150.82683175384557,147.14431189100188,147.46751403808594,391100
2025-03-11,147.24227347370973,147.4577416172004,144.2355379258109,144.84275817871094,304000
2025-03-12,145.18554224213253,145.18554224213253,142.56075547219578,143.0210723876953,299700
2025-03-13,143.39323247450463,144.16694798641166,140.79782663230102,141.7772216796875,238400
2025-03-14,142.23754924682325,143.86334873443155,141.5617642221919,143.63809204101562,223600
2025-03-17,143.49118010431383,144.95048427871978,142.854579225438,144.7937774658203,225200
2025-03-18,144.35304428256728,144.49015899982857,142.7762175618708,143.28550720214844,219900
2025-03-19,143.32466483055046,144.42159742424096,142.47259593827573,143.95147705078125,279600
2025-03-20,143.1190055816075,144.38241863949617,140.76844845978337,142.20816040039062,332800
2025-03-21,141.03288741960213,142.46281077035695,139.4266801328764,141.83599853515625,601900
2025-03-24,142.74685366750688,145.12677688467917,141.9241652673277,144.94070434570312,463800
2025-03-25,145.43038233248038,146.15512513486658,142.9231183481365,144.1767578125,325200
2025-03-26,144.02005068183723,145.63604659931275,143.28550436582418,145.49893188476562,630400
2025-03-27,145.2246994062801,146.80152606265366,144.0004555719647,146.2726593017578,312700
2025-03-28,146.21390008176047,146.90927723620769,142.75663628635246,143.90252685546875,239800
2025-03-31,143.55973295769965,146.01800923430915,143.08962750262015,145.32264709472656,372500
2025-04-01,145.8123638891414,146.93866240475776,144.3432710717018,146.02783203125,240000
2025-04-02,144.95049129591143,148.01600308998087,144.95049129591143,147.42835998535156,247600
2025-04-03,143.73602588355362,146.9582442746014,143.44221929600363,145.60667419433594,352900
2025-04-04,142.22775504246812,144.91130294785953,137.1544807452422,137.29159545898438,531600
2025-04-07,133.5306985896499,139.1915999801272,128.15383009223805,131.87551879882812,629900
2025-04-08,134.54929557388985,136.4395208305467,128.5749798434124,130.90594482421875,473800
2025-04-09,130.43582718258966,141.44423305934052,128.6141667138947,140.7880401611328,491800
2025-04-10,137.11532993446937,140.4158870228316,134.7354067381973,137.8596649169922,309000
2025-04-11,137.967394489513,141.72828334567205,136.8606880961678,141.14064025878906,203000
2025-04-14,142.79581425798335,143.38344237476502,140.82722046414764,142.7860107421875,249300
2025-04-15,143.0896488919898,143.52057023933776,140.807656215774,140.97415161132812,250700
2025-04-16,141.09164958012386,142.8153944455794,139.63236050898016,142.0122833251953,307700
2025-04-17,142.40405194984112,142.75663480933545,137.8107011490633,140.8664093017578,390600
2025-04-21,140.34731652488202,141.08186282740823,138.19265035968172,139.64215087890625,291600
2025-04-22,141.52260661323547,143.79481065396374,140.63135339324026,143.01129150390625,217800
2025-04-23,144.823151790697,146.24328667195422,144.1865509396658,144.99945068359375,537000
2025-04-24,144.88192409202932,148.86806971088194,142.4628317080614,148.33920288085938,424500
2025-04-25,147.74175781185858,149.84745131334506,144.52934305768525,145.98863220214844,220500
2025-04-28,146.71337821983508,147.91802992014826,145.2246935924771,146.6154327392578,235200
2025-04-29,146.67421273095528,148.84847116613122,145.939666366217,147.20309448242188,359900
2025-04-30,145.99844818091182,146.8994899625974,144.17677252930838,146.8603057861328,556200
2025-05-01,145.82883124627438,147.8721067076984,144.36514960993844,145.66183471679688,445300
2025-05-02,150.28867188742916,150.29848992197137,145.18047592473235,149.31614685058594,431600
2025-05-05,148.7562234700928,150.51462619082648,148.21594670199013,148.8053436279297,267600
2025-05-06,147.59705042912566,149.355437978684,146.78170385931236,148.25521850585938,312000
2025-05-07,149.1982877610097,150.44585281383766,147.96052575449374,148.71693420410156,318400
2025-05-08,149.1098443499113,151.84077180787722,148.5695676661293,150.65213012695312,302500
2025-05-09,151.19241752840685,151.57553070592974,150.23954360160494,150.6128387451172,231600
2025-05-12,153.0392239180569,153.82510139061208,150.98613045039815,152.7740020751953,352500
2025-05-13,153.55002366995856,153.55002366995856,150.49493650476262,150.9271697998047,339400
2025-05-14,150.90752912864178,150.90752912864178,148.30432613531156,149.78765869140625,350100
2025-05-15,149.65996739529265,152.7346909024297,149.65996739529265,152.21405029296875,278100
2025-05-16,152.4399964689241,154.3752135929202,151.86041763202704,154.23768615722656,278600
2025-05-19,153.5991717253283,155.5442069170815,153.5500515711728,155.28880310058594,185400
2025-05-20,157.43029958325823,157.43029958325823,155.12180229520027,155.73085021972656,388100
2025-05-21,154.09032526701444,154.86636965019244,153.07851316508325,153.68756103515625,319800
2025-05-22,153.59916031317496,154.483263064821,152.81328287317552,153.884033203125,278900
2025-05-23,152.3810559407016,153.4223372220158,151.53624028030902,153.18658447265625,260500
2025-05-27,154.25734853178614,155.64245601461047,153.92335544765425,155.36740112304688,352800
2025-05-28,155.36739421063615,156.03538034918074,154.4832763933447,154.6208038330078,364400
2025-05-29,155.04320652313712,155.8683710937722,154.05104543149486,155.5343780517578,232100
2025-05-30,155.44597065814978,155.9764293133438,153.77597547059216,155.60313415527344,335100
2025-06-02,154.75831599595244,156.26131463804512,152.51857506289332,154.1394500732422,349600
2025-06-03,153.4223415376803,154.66010346409962,153.24552697068694,153.5009307861328,397800
2025-06-04,153.72687442684654,153.7563435201819,147.63633532186296,147.7542266845703,831900
2025-06-05,148.90357998413,150.632498572694,146.41825295522108,149.79751586914062,482400
2025-06-06,151.6443086942385,151.75236704132885,149.52245886221365,150.60302734375,264700
2025-06-09,150.0136191980335,150.4753066580511,148.6874500367206,148.9232177734375,388400
2025-06-10,149.47332984142486,150.2984944487939,148.19628081228734,149.8367919921875,323500
2025-06-11,150.29851181607012,150.87809071516745,148.9232373115395,149.23757934570312,380800
2025-06-12,148.7365582104655,151.88987086726192,148.7365582104655,151.62464904785156,337200
2025-06-13,150.2985051515068,151.00579343372206,148.06858195648448,148.49099731445312,361200
2025-06-16,148.5695758002576,150.20025395390124,148.4516844355203,149.01162719726562,346200
2025-06-17,147.9998296074305,148.58922653181065,146.49684571567806,146.81118774414062,379700
2025-06-18,146.48700188455078,148.06857491409224,146.48700188455078,147.0567626953125,383200
2025-06-20,147.63634617447357,148.10788168123327,146.35931206442524,147.64617919921875,570500
2025-06-23,146.85047583401547,151.2218996436103,146.85047583401547,151.0745391845703,356500
2025-06-24,151.84078941040858,151.84078941040858,150.4753180284472,151.15313720703125,246600
2025-06-25,151.14329517579995,151.80146318967252,150.0725448990236,151.21205139160156,264700
2025-06-26,151.80147000378724,152.83293320202972,150.41636270870066,151.75234985351562,658200
2025-06-27,151.9292038692901,153.35359852041546,151.50678849615022,153.0687255859375,643100
2025-06-30,153.27499173184543,153.73669418509692,151.8800663373244,153.6679229736328,315500
2025-07-01,153.66791520781175,156.97842145950187,153.20622776725833,156.20236206054688,338300
2025-07-02,156.2122087454969,157.69554147577566,155.84873159459067,157.4892578125,293500
2025-07-03,157.76431481113727,158.51089020387988,156.99808835850575,158.196533203125,235100
2025-07-07,158.1081326731942,159.50305819756994,157.71520139482857,158.1179656982422,313900
2025-07-08,158.05901225349746,159.7093565965001,157.02756390215916,157.22402954101562,342700
2025-07-09,157.10611832400417,157.18470756749457,155.30844371561136,156.90965270996094,252800
2025-07-10,156.37919368056006,157.52853325880866,155.5343780517578,155.5343780517578,361600
2025-07-11,155.7603190354981,155.7603190354981,153.86440405350666,155.11196899414062,292000
2025-07-14,154.3654022940558,156.13362296539574,153.92335087356255,154.77798461914062,276600
2025-07-15,154.95479334988428,155.21019713887813,151.34959626569866,151.43800354003906,254200
2025-07-16,151.2022641344678,152.8624265472358,150.83880194564915,152.24354553222656,261900
2025-07-17,152.00777788286257,153.6482890740105,151.78182817574609,153.27499389648438,397700
2025-07-18,154.08052265083427,154.43416676966828,152.18459265589,153.6188201904297,243100
2025-07-21,153.65812006565358,153.90370586328876,152.49896229571195,152.7052459716797,205900
2025-07-22,153.35357548550758,156.54619042612177,152.48910879729814,156.3595428466797,449900
2025-07-23,157.24366585052525,158.99223535423732,156.3300789809644,158.8055877685547,450500
2025-07-24,158.559320268112,161.82979531304568,157.40675735764995,159.406494140625,431900
2025-07-25,159.63303970514875,160.65752157131263,158.38197744884806,158.58885192871094,296300
2025-07-28,158.79572064833397,159.5640858506177,155.80106845369062,156.3330078125,308500
2025-07-29,156.67779828906407,157.21959813532774,154.8750906357904,156.45123291015625,388200
2025-07-30,156.4315385130725,156.55958937255576,152.60940298667225,154.45150756835938,580700
2025-07-31,153.456563501654,155.0031544025075,152.86550639902828,154.79627990722656,679700
2025-08-01,154.6288158726098,155.76165777291718,138.9856590147076,139.24179077148438,1012300
2025-08-04,140.98538123418317,140.98538123418317,135.03547356824112,137.05490112304688,839000
2025-08-05,137.2617519084508,138.9659599251385,135.63636753338238,138.12863159179688,540800
2025-08-06,138.21729882019278,138.6605841437307,135.49846914211423,136.47369384765625,515300
2025-08-07,137.71491162131494,139.37970798596095,136.83818640949156,138.39462280273438,564000
2025-08-08,138.59163887027924,139.93135534040795,138.48327889728324,138.65074157714844,428700
2025-08-11,139.222090228796,139.5077583171329,137.12385398637957,137.7838592529297,349500
2025-08-12,138.12862654943748,138.98564573069308,137.15338694127408,137.399658203125,286100
2025-08-13,137.60654859738395,139.33044762978915,137.17310872138614,139.32058715820312,729900
2025-08-14,138.09908585404855,138.09908585404855,134.405016641309,136.27667236328125,875800
2025-08-15,136.29640019144338,136.87759690021682,135.8137029921251,136.65103149414062,770500
2025-08-18,136.81847442171076,137.4883401327873,135.3014499206359,135.83338928222656,529500
2025-08-19,136.20773671589527,138.4241784468644,136.20773671589527,137.50804138183594,333100
2025-08-20,137.8232781418471,139.14328874260568,137.18296372359896,139.07432556152344,519200
2025-08-21,138.53254347475354,139.78359091939785,138.14836082862038,138.54238891601562,270400
2025-08-22,139.15312448451428,141.19225798353852,139.08417633944555,139.32058715820312,356500
2025-08-25,138.8674588166062,139.4979127296023,136.88744301904194,137.47848510742188,245800
2025-08-26,136.9957973337368,138.06953652648775,135.95159446141804,137.62625122070312,442900
2025-08-27,137.01548945470773,138.47342629437426,136.95638675089546,137.3602752685547,729100
2025-08-28,138.07938928608468,138.07938928608468,135.35069910089788,136.8184814453125,320800
2025-08-29,137.09431078109077,137.78386744151146,136.28654870208595,137.1928253173828,370700
2025-09-02,135.37041901487592,136.46386429017952,134.13906239994887,134.37548828125,310600
2025-09-03,134.0503903916783,134.1488898889654,132.43485133034417,133.20321655273438,382300
2025-09-04,134.3163671782823,136.41458834161003,133.0258929963137,136.3948974609375,401800
2025-09-05,136.94654859153968,138.7197049562119,135.5772807659998,136.55250549316406,440800
2025-09-08,136.52295752982062,137.91193130257207,135.62652636886406,136.23728942871094,616100
2025-09-09,136.1978803964661,137.39968559639797,133.08502244977814,135.0059356689453,637100
2025-09-10,134.09965957050477,135.40982475360394,132.83875165602893,134.21786499023438,685100
2025-09-11,134.71040519706986,136.2175843964125,133.84352538471833,135.05519104003906,477500
2025-09-12,134.58232620679007,135.00592063066784,133.20321303157323,133.2130584716797,261300
2025-09-15,133.9420357302436,134.13904976383114,132.62202517087903,132.8387451171875,298000
2025-09-16,132.77962562814162,133.40023410540573,132.0999294759084,133.19337463378906,474800
2025-09-17,133.40021279614652,135.0256121123868,132.18856241946168,132.64169311523438,377400
2025-09-18,132.88798558145595,133.48888814617573,132.07037810452255,132.49395751953125,254800
2025-09-19,132.65158018177598,133.0850200863436,131.35126046807318,132.4348602294922,877200
2025-09-22,132.11962230163485,132.92739938115005,130.691251766929,130.74050903320312,402100
2025-09-23,131.0261738005905,131.95215627068484,130.00169183165633,130.0509490966797,319700
2025-09-24,130.03125417731107,131.3217134615017,129.38109429893456,129.53871154785156,353300
2025-09-25,129.53870141670419,130.54349251095573,128.32705085173455,128.8688507080078,388700
2025-09-26,129.37123644965243,130.4548211118124,129.00675974879576,130.31690979003906,274400
2025-09-29,130.42527680922657,130.7010994676822,129.4007947965638,130.29722595214844,540600
2025-09-30,129.74557555443596,131.76498814664785,129.74557555443596,131.66648864746094,310400
2025-10-01,131.34141139667054,132.35604794922318,130.33662028487404,132.1393280029297,310100
2025-10-02,131.66648573117217,132.38559368725765,130.97692912730892,131.19363403320312,398500
2025-10-03,130.49423360821496,131.58767874762543,130.45482178395852,131.23304748535156,402000
2025-10-06,130.90797079558112,131.21334480064905,129.45004891757588,129.9130401611328,447100
2025-10-07,130.13959122892322,130.53361925058735,127.8738925263408,128.6422576904297,438800
2025-10-08,129.22345454639873,130.04107697266164,128.31717806976172,129.6470489501953,361300
2025-10-09,129.73571125193516,130.8587077217144,128.258083526899,128.66197204589844,554200
2025-10-10,128.98704858156654,130.04108184834632,127.95270619480443,128.97718811035156,426000
2025-10-13,129.03630601031335,130.37602238234368,128.2186835523413,128.2777862548828,311400
2025-10-14,128.10046262811323,129.10525366111025,127.11537750629039,127.86405181884766,337400
2025-10-15,127.86406447402499,128.44526114593418,125.95299674355027,126.18942260742188,438300
2025-10-16,126.5243419047704,127.56852978216413,125.94313774513942,127.23360443115234,352700
2025-10-17,127.23361868299475,128.15960125344935,126.92824465044238,127.41092681884766,339700
2025-10-20,127.67688307805489,128.1497197271898,126.11060134384137,128.06106567382812,240500
2025-10-21,128.66197064438,129.80467301345007,127.19418837559832,128.62257385253906,311600
2025-10-22,128.70137488096933,130.13960588126338,128.04136960320932,128.12017822265625,357500
2025-10-23,128.2783732274755,130.04820070636612,128.1992726855578,129.29676818847656,378600
2025-10-24,129.27699821696652,129.41542040316887,127.09188897025071,127.42807006835938,489300
2025-10-27,127.68513804202082,128.43657062662018,127.00290900843953,127.32919311523438,521700
2025-10-28,127.29953156353623,127.65547648827675,126.03395296154486,126.6568603515625,413500
2025-10-29,125.84608767724626,126.06361040803851,122.02957306455488,122.9095458984375,651100
2025-10-30,122.6425973459498,124.10591981246533,121.65386309537952,122.95899200439453,702600
2025-10-31,113.99116650647636,116.76950718685458,102.0670345015107,114.70305633544922,2758200
2025-11-03,114.78215353846566,114.78215353846566,107.07003104374891,111.84561920166016,1661000
2025-11-04,113.0716415827989,114.69316503673943,111.26225622049985,112.89366912841797,1029100
2025-11-05,113.04198468525121,114.73271928879292,111.49955417930168,114.26801300048828,896900
2025-11-06,113.72420954512762,115.64235639440284,112.51796010267421,114.84148406982422,880300
2025-11-07,114.9205721317626,115.60279355716192,113.39792065465342,114.91068267822266,697200
2025-11-10,114.68328006091402,115.45449154553131,112.71570107535919,115.06888580322266,514000
2025-11-11,115.64235215314066,118.16362740289492,115.64235215314066,116.93759155273438,484800
2025-11-12,117.00680708571316,118.32182544371216,116.58165860151216,116.82884216308594,547500
2025-11-13,116.96725913412712,120.50692184487997,116.96725913412712,118.8458480834961,679400
2025-11-14,118.42069332802943,119.33033453666947,117.05624283023447,117.27376556396484,521200
2025-11-17,117.15511423578639,118.1438484441411,116.24548057452645,117.99553680419922,820200
2025-11-18,118.31193671929118,118.75686408712447,116.72995598156568,117.96587371826172,817400
2025-11-19,118.16362210922091,118.16362210922091,116.38389759577892,116.6706314086914,598900
2025-11-20,116.67063483535937,118.26249749040201,116.04773500908134,117.24410247802734,507400
2025-11-21,116.79916971414367,120.86286792776397,116.79916971414367,120.1509780883789,509100
2025-11-24,119.48852930748254,121.02107037008182,119.08315219875638,120.10154724121094,740000
2025-11-25,121.0309595133857,122.68214385066395,121.0309595133857,122.04935455322266,543600
2025-11-26,121.63407548431789,123.11717675407199,121.63407548431789,122.41517639160156,538000
2025-11-28,122.23721179455744,124.65961521692697,122.23721179455744,123.34459686279297,315700
2025-12-01,123.47312464549341,123.55222519221778,121.64396787729149,121.89115142822266,536800
2025-12-02,122.37563109798752,122.46462110038372,119.4390968008952,120.2300796508789,325400
2025-12-03,120.08176988930819,122.86011822072538,120.04222715811682,120.68489837646484,543100
2025-12-04,120.82332005860296,122.6821452414219,120.55636513524256,120.64534759521484,708000
2025-12-05,120.61568357957054,122.11856379579517,119.26112254625717,120.53659057617188,537000
2025-12-08,119.55773823925648,120.72444490270962,117.95599365521366,118.71731567382812,496600
2025-12-09,118.25260671307173,118.49979025868578,114.06037589162156,114.41632080078125,640300
2025-12-10,114.86125658975384,116.47289825316335,113.83297205936897,115.84999084472656,734700
2025-12-11,116.6310870053096,117.33308739219939,115.84010415999195,116.68052673339844,389700
2025-12-12,117.18477675810965,120.26963024864754,116.32458281214376,120.10154724121094,656400
2025-12-15,120.11144352151473,121.08039889052128,119.12270924260135,120.95186614990234,588600
2025-12-16,121.28802692871906,122.45473362902362,118.17351257639858,121.44622802734375,644800
2025-12-17,120.73433285185864,123.19627887906455,118.72720364799784,122.2372055053711,567300
2025-12-18,122.2767604710972,122.72169540087228,120.65523693661119,121.23859405517578,457100
2025-12-19,121.95048213130443,122.92933449703057,119.89392056770684,120.02245330810547,1300400
2025-12-22,120.02244905131522,122.30642273678362,119.70605439556444,121.35723876953125,527800
2025-12-23,121.48577032424926,121.6439638690421,119.95322934159698,120.81343078613281,311700
2025-12-24,121.14961134349309,121.78240068560056,120.3882892593289,121.36713409423828,198000
2025-12-26,120.99141254975284,122.08890816765887,120.34873378036154,121.86149597167969,306000
2025-12-29,121.90103810595791,122.90954365167185,120.9419647432383,121.82193756103516,400200
2025-12-30,121.41656795360201,122.89966931682952,121.04084411378047,121.35723876953125,289800
2025-12-31,120.15097596397585,121.94058998507745,119.98289296138277,120.58602142333984,314300
2026-01-02,120.36850209754444,121.61430932967109,119.4193181494529,121.15949249267578,295100
2026-01-05,120.38828287586783,123.17651312401219,120.38828287586783,121.61431121826172,435700
2026-01-06,120.8430922091253,121.46599202442482,118.7568624940921,119.20178985595703,777200
2026-01-07,119.31055741898699,120.57613602320409,116.28503309681528,119.0831527709961,478500
2026-01-08,118.56900865138992,121.98014631699301,118.17351344536358,121.06062316894531,330000
2026-01-09,120.70467850674399,123.5621198728979,120.09166055886544,122.4547348022461,429100
2026-01-12,122.60303947816963,123.88839694168902,121.59453392415777,123.72030639648438,477300
2026-01-13,123.64121411549613,124.02681984811237,121.15948917361368,122.10867309570312,351900
2026-01-14,122.71179941985773,125.7274416797615,122.71179941985773,125.42092895507812,611700
2026-01-15,125.70766789113175,125.78676843900955,123.11718152395939,123.7005386352539,381000
2026-01-16,122.60304567683241,123.78952374665012,121.85160554277793,123.30504608154297,363400
2026-01-20,123.49289879622381,124.11579860493296,122.0493478196131,122.42506408691406,275100
2026-01-21,122.90955081825824,124.20479780070094,122.50417370291805,123.60166931152344,421000
2026-01-22,123.64120901396967,124.98588806730808,122.66235676992284,123.06774139404297,369700
2026-01-23,122.93921055756546,124.85735737798285,122.4745118058816,124.58051300048828,429500
2026-01-26,124.99577817123766,125.55935637440064,123.69064930373163,124.92656707763672,315400
2026-01-27,123.54234245634069,124.87713973871088,122.77113094244734,123.33470916748047,303100
2026-01-28,122.80078648003611,123.6609879626866,121.8614919932062,122.3064193725586,347800
2026-01-29,122.88978028418853,123.86862507511535,121.20892754069328,122.4547348022461,386000
2026-01-30,121.52533188143772,123.60167232496788,121.27814831569736,123.54234313964844,512700
2026-02-02,122.80078342815366,124.49152553193812,122.80078342815366,123.42369079589844,489100
2026-02-03,122.51405462375108,126.48876266797768,122.29653189940339,123.22593688964844,658700
2026-02-04,124.77433039015442,129.44927260782487,123.77184577350829,128.26812744140625,589400
2026-02-05,126.71975064755804,128.1192596554473,121.05225107397254,123.05722045898438,2144200
2026-02-06,126.58078326238557,134.97782150042084,126.58078326238557,133.31031799316406,1045700
2026-02-09,132.5857587104382,138.531180271334,132.2582131007177,137.43936157226562,1043400
2026-02-10,136.78427392403074,139.88104683101494,136.78427392403074,139.126708984375,622100
2026-02-11,137.99519392074043,139.50388475135443,137.56840169460276,138.9678955078125,584300
2026-02-12,139.11678651599092,140.94308767923593,138.3525134196047,139.46417236328125,572700
2026-02-13,139.46416820425452,141.86615414747763,139.36492159879577,141.51876831054688,471900
2026-02-17,138.2234773285034,142.55102629654255,138.2234773285034,140.59568786621094,614700
2026-02-18,140.41703714664675,142.04482998774162,139.791721402891,140.66517639160156,582000
2026-02-19,140.5956812663536,142.25326464590432,139.98030082414553,142.09445190429688,525500
2026-02-20,142.0547550361601,144.0597244456509,140.94309602664507,143.97039794921875,664500
2026-02-23,142.42199361111417,145.15152505885825,142.06467252487357,144.63539123535156,513500
2026-02-24,144.98279666295065,145.8165408414096,142.77931908758302,143.06715393066406,429800
2026-02-25,141.3500320156877,142.5907281428982,139.3847584456305,141.61801147460938,348900
2026-02-26,142.45178416412276,142.8488009040386,139.9505362960431,140.73464965820312,331300
2026-02-27,140.47658357934912,142.9381205686862,139.9505296087492,142.64036560058594,344600
2026-03-02,141.93563886113196,142.2830398395081,140.56590547180699,141.60809326171875,335000
2026-03-03,139.5931967078321,140.26814325067423,135.90088396317486,138.71974182128906,347300
2026-03-04,138.302888395737,138.47162126788456,134.9976717766612,136.02000427246094,389000
2026-03-05,134.98775502807862,135.32522078079646,133.40959299752922,133.72720336914062,452300
2026-03-06,133.0026313554941,133.0026313554941,130.02496050425168,131.096923828125,398500
2026-03-09,129.9951790988654,132.98276993154295,126.58078092139597,132.75448608398438,545700
2026-03-10,132.3574660154593,133.1316591702968,130.42196798314936,131.14654541015625,503100
2026-03-11,130.8190202738326,132.28800044532838,129.0721101988683,131.03738403320312,563800
2026-03-12,130.29295237048808,131.8016279987067,127.68252279954663,127.90088653564453,620600
2026-03-13,129.1812869710477,129.1812869710477,126.10436937058473,127.69245147705078,660600
2026-03-16,128.51628506786432,130.4319280867629,125.06219070801843,128.08949279785156,370700
2026-03-17,129.00263581888095,130.04482370856644,127.28551643200822,128.5361328125,276700
2026-03-18,123.45423058912087,125.63786042046195,120.51626292882625,123.29542541503906,910500
2026-03-19,122.0944332187195,123.8909588849741,120.54603921873606,123.04728698730469,518500
2026-03-20,123.33512999241371,123.33512999241371,119.41452545613383,120.15894317626953,1481500
2026-03-23,122.59071811756196,125.39964869362488,122.0745842329971,123.21602630615234,455200
2026-03-24,122.2433152775169,124.28798013248851,121.95547285876513,123.22594451904297,405000
2026-03-25,124.50634549167631,125.62793211237509,122.78921864642815,124.88351440429688,337200
2026-03-26,124.28798636131239,126.3922023143744,123.19617519683187,123.76193237304688,442100
2026-03-27,123.01751427118627,123.28550132328671,120.85373975633635,121.08202362060547,381400
2026-03-30,121.64777727824665,123.01751071469691,120.19864504103799,122.44182586669922,562000
2026-03-31,123.46415851677581,126.01502957768723,122.67010992701152,125.08202362060547,557800
2026-04-01,126.39219982096562,127.68252689973865,125.38972274230011,125.80659484863281,380200
2026-04-02,124.2085781211438,126.14406117582702,123.32520302720033,125.07210540771484,297500
2026-04-06,123.66266876079281,125.25076596450165,123.66266876079281,125.07210540771484,461100
2026-04-07,124.38723692091199,126.22346576757812,123.8711106378232,124.67507934570312,376900
2026-04-08,130.4021481364575,131.68254004802253,127.19617800807119,131.03738403320312,645200
2026-04-09,130.24332882387228,131.45424955756675,126.39220287440348,130.42198181152344,424100
2026-04-10,131.2656579543429,131.71230555728022,129.87608426848973,130.521240234375,407400
2026-04-13,129.82646170678544,131.43439923843442,126.63042687940094,131.126708984375,396300
2026-04-14,130.2532453341348,131.73216065356567,129.99518597737963,130.03488159179688,315500
2026-04-15,129.83636721114993,130.0547309433663,127.64282491736233,128.68499755859375,407100
2026-04-16,125.9554827551545,129.3599535123959,125.9554827551545,127.33512878417969,393800
2026-04-17,128.68501330537714,131.31529853067389,128.68501330537714,129.65773010253906,401100
2026-04-20,129.59817078840075,131.00759986778516,128.69494031122633,129.945556640625,403600
2026-04-21,129.727195499975,131.2656618627598,125.7470474243164,125.7470474243164,310200
2026-04-22,126.33264680138942,126.33264680138942,122.04480110008107,123.62297058105469,458900
2026-04-23,124.44679072012924,126.49146323670142,123.51379231359721,124.01007080078125,440800
2026-04-24,123.48400922187079,123.48400922187079,121.6577005635927,123.15646362304688,440900
2026-04-27,123.11676141393268,125.2904634945878,122.6204829533344,123.80162811279297,359700
2026-04-28,125.18128618602746,125.70734016180099,122.79914797388655,124.8338851928711,354300
2026-04-29,124.20857785922294,124.96292327213307,121.87607050853111,121.9852523803711,448400
2026-04-30,122.51130595027864,125.14158341040145,120.97283963229869,122.75944519042969,764800
2026-05-01,126.26316859263083,127.5237125861033,117.0224658192811,118.13412475585938,989400
2026-05-04,117.79666211505766,120.84381172589876,116.58574139374336,119.7023696899414,739600
2026-05-05,120.00014032911528,122.78922301811379,119.92073395333378,121.1217269897461,628600
2026-05-06,122.74597925597982,125.94466800462597,121.24129756714204,122.19791412353516,917000
2026-05-07,122.5068295340525,126.02439054042098,122.13813047351475,124.66918182373047,749700
2026-05-08,124.78875603965518,125.4165335007669,119.9658058031768,120.56369018554688,794900
2026-05-11,120.79288554794945,120.79288554794945,119.0191585502766,119.53732299804688,706100
2026-05-12,120.02559365453983,120.43415267647454,116.72725880994862,117.6340560913086,696600
2026-05-13,117.58423293808002,118.33159035082205,116.01976505817387,117.46465301513672,679500
2026-05-14,118.31166263789773,119.73662439056804,116.62761485678391,117.57426452636719,531000
2026-05-15,117.49455009110837,117.5045093824967,114.06666843041747,114.26596069335938,447000
2026-05-18,115.19268785792543,116.90662874327987,114.76420263658683,115.40194702148438,433100
2026-05-19,115.48166685737739,115.63113986049136,112.05378509001822,113.20970153808594,575800
2026-05-20,113.66807993613209,115.04321484042606,111.15696237122292,114.85388946533203,562600
2026-05-21,116.08951407739181,116.08951407739181,112.37265332877841,115.1030044555664,345600
2026-05-22,115.39198749681162,116.38846404651633,114.30582410432685,115.82047271728516,405800
2026-05-26,115.79056648170686,116.55785764558959,114.96349676302546,115.96993255615234,344500
2026-05-27,116.52796630163347,117.69384200162881,114.32575411191587,114.89374542236328,464000
2026-05-28,114.40547144179769,115.93007936247552,112.95061657623215,115.58131408691406,510100
2026-05-29,114.65458561775299,116.84683851674723,113.34920381323532,115.44180297851562,559600
2026-06-01,114.28589767180515,114.72434218302038,111.63526640610465,111.9840316772461,706800
2026-06-02,111.5555436879482,112.65167394505289,110.84804626905223,111.78473663330078,452400
2026-06-03,111.29646253608045,113.61824699938008,111.29646253608045,112.13349914550781,372600
2026-06-04,114.54497230632394,115.35212345281656,111.14699134502068,112.15343475341797,337600
2026-06-05,112.69152600064275,114.18624078068318,111.58544405772433,112.96057891845703,466300
2026-06-08,111.86445781905672,112.24311616501637,110.55906839000053,111.54558563232422,422200
2026-06-09,112.88085932662787,115.74074968498803,112.27300803930216,115.49163055419922,444400
2026-06-10,115.74074928767203,116.13934141606836,112.97054577921195,114.26596069335938,496800
2026-06-11,114.70441351982215,116.59772043978674,113.85740999319688,116.16923522949219,395200
2026-06-12,117.48458764205596,118.05257897569324,115.96993901734801,117.30522155761719,342600
2026-06-15,118.28175862932584,120.31457162088154,117.14577601676713,117.66394805908203,576100
2026-06-16,118.08246565966249,120.62348378448296,113.36912845320511,120.22489166259766,474700
2026-06-17,121.19147655168894,121.918900150595,119.03908362900873,119.56721496582031,680500
2026-06-18,120.03556323646836,122.1182031608104,118.69032142639777,119.89605712890625,750600
2026-06-22,119.13873446752551,120.58363003359555,118.46113010611298,119.57718658447266,468400
2026-06-23,119.93591657137902,122.14809569936509,118.6604278207416,120.1850357055664,514100
2026-06-24,121.55021059109053,124.60939323702425,121.34094382937874,123.84210205078125,404900
2026-06-25,125.28699706013307,127.68850153642342,124.45991971828299,125.98452758789062,363500
2026-06-26,125.49625757990486,126.67210019838983,124.3204149614199,125.53611755371094,727400
2026-06-29,125.16742108368359,125.60587320209562,123.48337326752176,124.84854888916016,446600
2026-06-30,124.16097333332938,125.86494727656601,123.5033027809896,124.75885772705078,329300
2026-07-01,124.67914609082169,126.39307933521575,123.66273577346423,124.80868530273438,405600
2026-07-02,125.82508774888942,127.77818082996899,124.96812492977865,126.5325927734375,468400
2026-07-06,125.98452783897301,126.6023460237271,123.74245564919634,125.56600952148438,431400
2026-07-07,126.18381913439254,128.26645901687073,125.71548155556971,127.2400894165039,392700
2026-07-08,126.00445175211411,126.26353777363065,122.60647080352626,123.77234649658203,537700
2026-07-09,124.02146439127118,125.03787467960888,123.34386006655016,124.0114974975586,302100
2026-07-10,124.55956853594634,126.53259544666133,123.93179104742975,125.08769989013672,385200
2026-07-13,125.64571994715708,126.72191640641843,123.96167980892794,124.449951171875,391600
2026-07-14,127.96751666781715,128.95403392567474,127.5091383673285,127.82801055908203,739900
2026-07-15,129.25298235497795,130.3092450844948,127.99741214779503,128.65509033203125,466800
2026-07-16,129.56187796196684,134.6040465870392,129.56187796196684,134.27520751953125,579300
2026-07-17,135.351401437915,136.16850424088722,130.24944675099272,132.1427459716797,530800
2026-07-20,131.9135687694055,131.9135687694055,129.2928306127641,129.4522705078125,422900
2026-07-21,130.07008242817932,130.59821378154385,127.46927803301472,128.45579528808594,328800
2026-07-22,129.35261865201468,130.02025611657908,128.02730301458666,128.71487426757812,309900
2026-07-23,128.39600579528673,129.36258923692642,127.71839385448645,128.54547119140625,382800
2026-07-24,129.13338680160044,132.26232242316664,129.13338680160044,131.8936309814453,335900
2026-07-27,132.72071171310446,133.60757521827134,132.19258036761323,132.9000701904297,411200
2026-07-28,134.9030016293852,137.54365843276426,134.3549364800917,137.32443237304688,593100
2026-07-29,135.52081464440568,136.11870667337666,134.0759266469227,135.75,580000
2026-07-30,136.39999389648438,136.39999389648438,133.11000061035156,133.8699951171875,627000
2026-07-31,137.4600067138672,139.57000732421875,132.1699981689453,133.9600067138672,886500
2026-08-03,137.22999572753906,138.4600067138672,134.52999877929688,136.77000427246094,642500
2026-08-04,137.8699951171875,137.8699951171875,135.33999633789062,136.17999267578125,511900
2026-08-05,136.8699951171875,136.77999877929688,135.14999389648438,136.75,350353
