Date,Open,High,Low,Close,Volume
2023-07-07,108.3700790753215,110.94825786857312,108.31235367026923,109.46676635742188,333400
2023-07-10,109.00499442816958,110.91939335472682,108.71639677529014,110.12092590332031,248000
2023-07-11,109.96700910178262,111.16951775643263,109.06272758436648,111.12142181396484,226700
2023-07-12,112.15075043375238,113.08389817019831,111.37151996316304,112.42973327636719,199400
2023-07-13,112.41049037080688,112.91073800474413,112.13150752486675,112.56441497802734,190200
2023-07-14,113.21859488489058,114.3248969529102,112.26620276543113,113.853515625,271600
2023-07-17,113.90161636491591,114.99830362389025,112.70872988558996,114.72894287109375,234200
2023-07-18,114.48843069197581,115.79676051992628,114.19020359473971,114.55577087402344,189100
2023-07-19,114.23830983130526,114.8732378552366,113.81502448201769,114.58463287353516,247200
2023-07-20,115.22917239852205,115.65245773575094,114.34412791116105,114.79627227783203,175800
2023-07-21,115.10410420931842,115.48890836085613,114.35374015056067,115.28688049316406,184300
2023-07-24,115.46005155976455,115.912195924815,114.19982501511453,115.18107604980469,163400
2023-07-25,115.13297461841519,116.51826676509069,114.76741467505558,115.97953796386719,250700
2023-07-26,115.98920106005731,116.22086850035656,114.69570917552166,115.78648376464844,306900
2023-07-27,115.89265748696491,116.5876671201312,114.61847561435158,115.00459289550781,407800
2023-07-28,118.23832650015827,122.5821299006814,117.64949922781021,119.48355102539062,513000
2023-07-31,119.23255838755149,119.62833062613754,116.63593458410192,117.24406433105469,746500
2023-08-01,117.03171151335569,118.24797849712147,116.5587216614483,118.1900634765625,365300
2023-08-02,117.22475920809303,118.08386627371769,115.81543742218545,117.99698638916016,329200
2023-08-03,117.30199293914264,118.46999987567395,116.52976565163671,116.61663818359375,195900
2023-08-04,116.43322735677468,117.89080926457223,116.29808740988715,116.45252990722656,116500
2023-08-07,116.53941151793796,117.4371311010002,116.32704663695499,117.07997131347656,140300
2023-08-08,115.9119686703386,117.18615055689943,115.55480889255898,116.9158706665039,270100
2023-08-09,116.91588728463365,119.10709159142796,116.33670759194904,117.60124206542969,287500
2023-08-10,117.57226804078596,119.28082727342787,117.57226804078596,117.98734283447266,216000
2023-08-11,117.29235454645382,118.94299906430355,117.29235454645382,118.35417175292969,226500
2023-08-14,117.79427784821463,118.72095489501953,117.35990051409733,118.72095489501953,145700
2023-08-15,118.37345297215884,118.66304277835748,117.74602066635293,117.8521957397461,249000
2023-08-16,117.5046887865141,118.88505300396673,117.27301401444821,117.32128143310547,291100
2023-08-17,117.72671616217751,118.40242328617137,117.39852124033838,117.4178237915039,186600
2023-08-18,117.16684484694098,119.13603644494522,117.16684484694098,119.01055145263672,443100
2023-08-21,118.87542120056459,120.13994827827493,118.78854130297485,119.48355102539062,358800
2023-08-22,119.57042216370789,121.34655144459086,118.49895014757142,118.6823501586914,429600
2023-08-23,118.7885388380475,119.27118365031271,118.0645716196497,119.10708618164062,305000
2023-08-24,119.20362305346342,121.10524494179332,118.3348608500924,120.76739501953125,278400
2023-08-25,121.21140789758252,123.24816942714405,120.64189060090382,123.11302947998047,493000
2023-08-28,123.19992236538391,125.08224170838267,123.19992236538391,124.91814422607422,331900
2023-08-29,125.29457977895636,127.37960862951105,124.90845514228948,127.24446868896484,472400
2023-08-30,127.77537379799342,128.63448091355718,127.1286315630544,128.27732849121094,298900
2023-08-31,128.65378035392868,129.08815767287626,127.64988577837984,127.95877075195312,305800
2023-09-01,128.4800393723545,129.14607676021254,127.92016969036523,127.94912719726562,252000
2023-09-05,127.10931616019016,127.39890596028071,122.939273117993,123.14198303222656,325300
2023-09-06,123.35435957766143,123.56671710464039,121.81954527524937,122.02226257324219,291100
2023-09-07,121.90640939193572,122.75586148363936,120.79632501630161,121.0086898803711,328600
2023-09-08,121.15349629318462,122.27322836758205,120.77703394911717,120.96043395996094,238800
2023-09-11,122.58212288434471,123.48949745495977,122.02226051962224,122.60143280029297,333500
2023-09-12,121.73268738421739,122.87172955032656,121.06663511962672,122.13810729980469,258000
2023-09-13,121.41412887262732,122.19601111877186,120.76738658595033,121.01836395263672,279300
2023-09-14,121.63612507902351,122.88134934735977,121.63612507902351,122.36009216308594,217900
2023-09-15,122.09948164304562,122.78483638765171,120.82529964265854,121.55892181396484,589200
2023-09-18,121.97399375623068,121.97399375623068,120.58397438341775,121.27898406982422,175100
2023-09-19,121.32724871079844,121.32724871079844,119.7538219944691,120.96043395996094,218600
2023-09-20,121.47204622557736,121.72302359708121,120.2364766498286,120.30404663085938,206200
2023-09-21,120.01446098001375,120.03376353212249,117.94874176933433,117.97769927978516,335700
2023-09-22,118.08387254217192,118.63408729166287,117.87150766261843,118.42172241210938,341200
2023-09-25,117.7556733807471,119.82139248538923,117.25372604135627,119.7345199584961,258800
2023-09-26,119.24222158838647,119.9082737605531,118.95263913082606,119.3097915649414,547000
2023-09-27,119.73452920562256,120.13029413299238,118.6051420813391,119.23257446289062,362400
2023-09-28,119.56077415880812,121.27898852184504,118.98160185373365,121.1148910522461,219300
2023-09-29,122.09945767928748,122.42765991436882,120.4584685976024,120.69979095458984,330900
2023-10-02,120.20751032066919,121.1245398411893,119.68625306327961,120.70946502685547,244100
2023-10-03,119.71521788007513,120.96044239908811,118.23832590960583,118.60514068603516,236300
2023-10-04,119.26152579086992,120.33299777103545,118.0838713719799,119.91792297363281,208200
2023-10-05,119.65729213678843,120.5936241817703,118.53756008460046,119.45458221435547,466700
2023-10-06,119.31944873185724,122.29254248446563,119.10708384030303,122.02226257324219,491700
2023-10-09,121.45272473108072,122.80413150550514,121.32723974718735,122.53385162353516,275700
2023-10-10,122.82345065071607,124.14590009712616,122.11879334387909,122.14775085449219,322000
2023-10-11,123.10338592529297,123.26748339568097,122.25393369807082,123.10338592529297,212900
2023-10-12,122.80415183788968,122.97790427143451,120.71912263535175,121.0666275024414,189300
2023-10-13,121.62649932106444,122.27324163725763,121.04732698768882,121.59754180908203,324900
2023-10-16,122.9392835826247,123.00685355978747,121.79058660628245,122.31184387207031,275200
2023-10-17,121.63615301588416,123.88527234319643,121.63615301588416,123.05513000488281,314400
2023-10-18,122.46628968040957,123.23851691314512,121.89676500786375,122.37940979003906,287300
2023-10-19,121.70371751008852,123.0454694977166,121.03766531314531,121.3658676147461,443900
2023-10-20,121.55892290885227,122.08983514903522,117.69776440446827,117.97769927978516,446500
2023-10-23,117.4950492127488,118.88506856883411,117.00274946337274,117.28268432617188,379000
2023-10-24,117.89081547731821,119.4738898224914,117.49505057331248,119.0588150024414,312100
2023-10-25,118.57457241634825,119.88205825668655,118.05157660238528,118.51646423339844,431300
2023-10-26,117.44141263972791,121.44135246402949,117.44141263972791,119.54307556152344,576000
2023-10-27,119.58182197378237,119.94016561837014,116.5697580258713,117.354248046875,364000
2023-10-30,118.08061901965189,118.46802410900513,117.04431465438604,118.32274627685547,283100
2023-10-31,118.65204129441797,119.02007205940136,117.99345486977474,118.41959381103516,422900
2023-11-01,118.26464547425135,119.54307717643965,117.78039092964764,119.05882263183594,360500
2023-11-02,119.82393753491263,120.37598738258195,119.10724292668908,119.68834686279297,384300
2023-11-03,120.51157663196489,122.00308139681017,120.51157663196489,121.40260314941406,278000
2023-11-06,121.32513288888951,121.7706535816755,120.82151140319914,121.2476577758789,173500
2023-11-07,120.69561059020047,121.05395423969588,120.25977704767764,120.62781524658203,205000
2023-11-08,120.94742308334769,121.5382142710795,120.49222997808914,121.17987060546875,175800
2023-11-09,121.7319040679417,121.7319040679417,120.16291675704831,120.47283935546875,118600
2023-11-10,120.32756674184381,121.82875878037683,119.98859003966672,121.7609634399414,195600
2023-11-13,121.44135499845274,121.52852465947475,120.45347897141063,120.60843658447266,183100
2023-11-14,121.98371434677951,123.83357021629412,121.36386913343608,123.82388305664062,267400
2023-11-15,123.79482241076971,124.74396449982626,123.33962198995368,123.68828582763672,388600
2023-11-16,123.63017461692814,124.56962213465081,122.84567730682582,123.5333251953125,217000
2023-11-17,124.51152524922635,125.01515410991232,123.5914445767463,123.9013671875,162700
2023-11-20,123.43647327736079,123.63017951740747,122.44859731510405,123.3105697631836,213900
2023-11-21,123.44617025127671,124.2597217458794,123.19435581376419,123.88200378417969,160600
2023-11-22,124.40498620938287,125.13136800676534,123.34931487730645,124.5212173461914,174800
2023-11-24,124.9086293110975,124.9086293110975,124.06603105904915,124.48248291015625,65900
2023-11-27,123.79481793981684,124.25970550298354,122.85536304382997,123.00064086914062,367500
2023-11-28,123.00065360969789,123.0103407694919,121.53820282459247,121.65442657470703,218000
2023-11-29,121.68347600284008,122.41954494708847,120.98614830714556,121.42198181152344,331800
2023-11-30,121.49945624960122,123.12655173420484,120.879611054432,122.89411163330078,301000
2023-12-01,122.43892176614067,124.49215638137169,122.43892176614067,124.06602478027344,218300
2023-12-04,123.43646067912864,124.82143613941142,122.89409804062785,124.37591552734375,192000
2023-12-05,124.21128583306977,124.637432180179,121.91591672132816,122.02245330810547,178000
2023-12-06,122.40986223070405,123.2912090417348,121.91592053013585,122.39049530029297,179500
2023-12-07,122.26457897811483,123.10718450188428,122.0224517184367,122.50670623779297,254000
2023-12-08,122.38080197837209,123.48490168465685,121.66410736304317,123.3105697631836,265800
2023-12-11,123.25245318344982,123.65922517611136,122.36141931825313,123.55268859863281,338000
2023-12-12,123.63019043101764,124.06602396774328,122.69073540398784,123.46554565429688,210300
2023-12-13,123.17498677043272,124.92799325376262,123.17498677043272,124.54058074951172,425000
2023-12-14,125.01515711630776,125.91586349088605,122.88443265064014,123.3880615234375,412900
2023-12-15,123.15562026534607,124.53090140906804,122.0030920759156,122.01277923583984,713000
2023-12-18,122.71977536097222,123.2040298643566,121.91591111196121,123.049072265625,240500
2023-12-19,123.68828729734022,124.09506670556218,122.06119183186492,122.25489807128906,659100
2023-12-20,122.05151063829354,122.94254460492192,121.50914791967111,121.61568450927734,346400
2023-12-21,122.26457917418375,122.26457917418375,120.91835219934543,121.94497680664062,421900
2023-12-22,122.41953577357906,123.03938092571772,122.14835444316053,122.29362487792969,312200
2023-12-26,122.16774340609439,122.87475833575174,121.63506041874032,121.86750793457031,274700
2023-12-27,122.14837512654982,122.48735184697192,121.09269632393432,121.33482360839844,283100
2023-12-28,121.0442736769447,121.8384508637691,120.48253661112938,121.25733947753906,343600
2023-12-29,121.24764780949722,121.41229257117608,119.66897336181908,119.72708892822266,313500
2024-01-02,118.74888942641708,120.19196577165468,118.43896684108141,119.01038360595703,313100
2024-01-03,121.20889885443795,123.25245336857849,119.27188091793599,121.41228485107422,531700
2024-01-04,121.23796483552567,121.95465947338585,120.22102736343857,120.30819702148438,353300
2024-01-05,119.88204634088143,120.45347050993072,119.11692332182685,120.288818359375,423000
2024-01-08,120.16292355411841,121.21860231382453,118.51646104234021,120.4341049194336,352400
2024-01-09,119.81425753742421,120.71497127842206,119.09756288636142,120.70528411865234,250300
2024-01-10,120.54064287476366,121.4704107331338,120.31788991750878,121.2476577758789,279600
2024-01-11,121.43166549949392,122.97159877535763,121.00552652992823,122.84568786621094,323100
2024-01-12,123.86262311015058,123.94010560835483,121.9546590794131,122.44860076904297,231700
2024-01-16,121.91591381064313,122.82631466168198,121.55757019925443,122.8166275024414,257500
2024-01-17,121.97404234594728,123.26215387467808,121.92561393373273,122.70042419433594,336900
2024-01-18,123.31057880230377,125.91586326695527,122.33238253849082,125.0732650756836,444200
2024-01-19,125.62531319767785,127.32020400576255,124.49214462396206,126.68098449707031,418000
2024-01-22,126.77781705766294,127.65916375877843,126.44852755777603,127.0586929321289,266200
2024-01-23,127.64948900311698,127.69791740871402,126.22577959255632,127.67854309082031,217800
2024-01-24,127.95940434814659,128.12404910475004,126.42915835478719,126.66160583496094,294400
2024-01-25,127.87224186670568,128.21122592742955,126.27420793077776,127.11680603027344,332300
2024-01-26,127.53326850275722,128.4146153119421,127.26208714274277,127.55264282226562,219900
2024-01-29,126.92311919612955,128.41461669224083,126.3807564702709,128.0853271484375,187800
2024-01-30,127.87225396638219,128.89887123722548,127.48485624170483,128.0853271484375,228400
2024-01-31,128.60021459721827,128.9888318451337,125.48164086294545,126.18113708496094,537500
2024-02-01,126.74461584270689,127.37609846167305,125.91881719553733,126.7834701538086,298800
2024-02-02,126.25887748257338,126.98751824296068,125.02504164419864,126.39488983154297,344800
2024-02-05,125.45251321054381,127.70643425314584,124.40326873710978,126.92921447753906,319500
2024-02-06,126.76405604375617,127.6578535856557,125.61766837835263,127.39555358886719,369700
2024-02-07,127.66758565224141,128.64881658304117,125.68567439448216,128.04647827148438,393000
2024-02-08,127.89100446372801,130.99986822769836,127.79384644875978,128.35733032226562,620700
2024-02-09,128.34765326293345,135.24545901063345,127.76473467256268,135.00257873535156,650900
2024-02-12,135.19685465206098,136.46954468413216,133.59383624109773,133.6909942626953,491300
2024-02-13,132.79720331284167,133.41897613857319,131.13589593708764,132.058837890625,275900
2024-02-14,132.37944687307478,133.5452839390653,131.32049253489302,133.26353454589844,335000
2024-02-15,133.26352772923445,133.88530054798204,130.7375821386744,131.19418334960938,471400
2024-02-16,131.51479249745606,134.06989746093748,131.19418878983706,133.58413696289062,453900
2024-02-20,133.2343801311246,136.14894292952246,133.04978878201547,135.71176147460938,373000
2024-02-21,135.11915707414406,136.11982262644284,135.03172373250294,136.01295471191406,276300
2024-02-22,136.46956475351203,138.36402785940447,136.08096225843894,137.4410858154297,295700
2024-02-23,137.92685700214864,138.0045804720149,136.5958777882497,137.334228515625,190300
2024-02-26,137.47021310589366,138.01426246079586,136.79015141226589,137.8782501220703,199200
2024-02-27,137.87825149589725,138.13084160626636,135.81863182489295,136.31410217285156,244600
2024-02-28,135.67290467799532,137.21763436808848,135.3620256598198,136.41127014160156,189600
2024-02-29,136.62501092668225,137.59653198323437,135.84779111659356,136.45985412597656,250600
2024-03-01,135.89636538153738,136.78043824566248,135.5854715386809,136.294677734375,151400
2024-03-04,136.68329367940922,138.07256161225055,136.55699120397486,137.91712951660156,260300
2024-03-05,138.21831661463187,139.13154885729068,137.70341159683255,138.46119689941406,190200
2024-03-06,138.85948674736358,139.54927316677816,138.4223052706071,138.99551391601562,184000
2024-03-07,140.3847801035931,141.0065529311518,139.74357270585753,140.53050231933594,250100
2024-03-08,140.58881247786712,140.9385606359244,138.89836057655117,139.0149383544922,185200
2024-03-11,138.72346042502105,139.29666901267245,137.9365308813045,138.67489624023438,226700
2024-03-12,138.73321697940324,138.7817959995776,137.45080200313137,138.3543243408203,242200
2024-03-13,138.9274874603586,138.9274874603586,136.91643209967154,137.139892578125,336800
2024-03-14,137.33421990117986,137.5868100442241,136.36269882514554,136.9164581298828,235200
2024-03-15,136.05178467736658,138.3542993647007,135.76034025740415,136.9844512939453,599500
2024-03-18,136.91644460546308,137.27591744856747,134.9734026453255,135.29400634765625,299700
2024-03-19,134.9248323837434,136.32382490396157,134.9248323837434,135.53688049316406,253000
2024-03-20,135.65346636305446,136.08093792573945,135.17741579111308,135.98377990722656,220000
2024-03-21,136.31411913042012,137.56738961386023,135.33288818521672,137.1204833984375,255800
2024-03-22,137.96568472502892,138.3931563147583,137.0330329149223,137.55764770507812,276000
2024-03-25,137.17875500009464,139.94759563375453,137.1496105575705,138.88864135742188,316300
2024-03-26,138.76233765022266,140.20018449075258,138.55831173014377,139.12179565429688,314200
2024-03-27,139.57841110454743,141.01625793912805,139.57841110454743,140.54022216796875,218200
2024-03-28,140.69566694081686,141.21057184317644,139.55897441755064,139.79214477539062,247800
2024-04-01,139.6949981759376,139.6949981759376,138.07255988358438,138.2377166748047,204400
2024-04-02,137.8005474729194,137.8005474729194,136.39184486109863,136.62501525878906,202600
2024-04-03,136.66384822637758,137.16904326365426,135.88662851308266,136.8678741455078,258700
2024-04-04,137.79082770836482,138.68462526566978,136.95531904023974,137.71310424804688,403600
2024-04-05,137.35365632292107,138.69434534542057,136.93589454599896,137.6936798095703,288300
2024-04-08,137.63536010287416,138.32514644438334,136.39181457314476,136.50839233398438,312500
2024-04-09,136.42097007036026,137.08161202520498,135.39116023485812,136.31410217285156,242600
2024-04-10,135.02200135989193,136.22669288767483,134.5070963512657,135.43003845214844,200700
2024-04-11,135.2940122618255,136.05179747346585,134.50708260544775,135.167724609375,265300
2024-04-12,134.23505539317335,134.9928405906335,132.08800227511426,133.2926788330078,299200
2024-04-15,134.66253312030298,135.82835541361058,133.90474788844134,134.2642059326172,319600
2024-04-16,133.8658771295901,135.42031671806618,133.44813019942495,134.64309692382812,281700
2024-04-17,134.92483683201934,135.5077405185057,134.40993190471795,134.45849609375,565400
2024-04-18,134.44881897610108,135.4689192062677,134.28366215014833,135.1483154296875,246600
2024-04-19,135.09970992098616,135.93521858652753,134.8179753494098,135.37173461914062,276600
2024-04-22,135.57574676552883,137.1301713362783,135.28428752594058,136.32382202148438,298800
2024-04-23,135.78949299276147,137.13990657658505,135.54661274513685,136.15866088867188,417200
2024-04-24,136.36329301656707,137.28894299900975,136.06124022029175,136.4217529296875,559200
2024-04-25,136.25610434963974,137.62997170625445,135.35968437114948,136.58738708496094,694400
2024-04-26,138.36074617212847,144.70389897172197,138.26330307984543,139.6566619873047,489500
2024-04-29,141.18641384576117,144.2264628084988,140.66999817879426,142.6284942626953,676700
2024-04-30,142.004909646234,142.35568398559658,140.36795777329885,140.6797637939453,585100
2024-05-01,141.2741247498313,143.43723060207003,140.87462887898343,141.6541290283203,359600
2024-05-02,142.02437958989475,142.9695211017198,141.56642381126906,142.18028259277344,356500
2024-05-03,143.33976921113882,143.35926080100958,141.12794209420005,143.04745483398438,303300
2024-05-06,143.97311219834887,145.25928957827287,143.38849828106964,145.22030639648438,260200
2024-05-07,144.51880499832362,146.52600814534517,144.51880499832362,145.88291931152344,392900
2024-05-08,145.8828911206105,147.00341231365334,145.64903662593957,146.9254608154297,223500
2024-05-09,147.13009939399845,147.84138644002505,144.82084365124953,145.25930786132812,299100
2024-05-10,145.13263555860982,145.1813571083666,144.2946754530738,144.68443298339844,186300
2024-05-13,144.72339575642974,145.64904569541716,143.09619715747255,144.08030700683594,167500
2024-05-14,144.49928507792563,144.5090234397785,143.690555012297,144.10952758789062,137600
2024-05-15,144.16801247457715,144.53826353142094,143.00850802044988,143.50543212890625,211100
2024-05-16,143.5931019397819,144.1095175689133,142.6771904865369,143.7587432861328,235500
2024-05-17,144.06081633480602,144.37260744920198,143.35926774275575,143.8854217529297,169500
2024-05-20,143.80748238942644,144.60647413522753,143.27157510477068,144.37261962890625,163400
2024-05-21,144.14852481169098,144.86955021996388,143.32030307395482,144.7818603515625,280400
2024-05-22,144.27521172315187,145.01572879587746,143.6905828088684,144.97674560546875,283300
2024-05-23,144.8500545527729,145.1326157143598,143.7782400755933,143.93414306640625,171700
2024-05-24,144.6746820401184,145.01571802607805,143.58339067341524,144.294677734375,162300
2024-05-28,143.836724802742,143.9926278204598,142.08286789047202,142.95005798339844,318400
2024-05-29,141.91719871726886,142.94029173473893,140.80641583571733,141.12796020507812,229700
2024-05-30,141.41052828428462,143.21310648226037,141.28385524260108,142.39463806152344,328100
2024-05-31,142.34592221115324,144.04133389426428,142.18028084802555,143.90492248535156,358900
2024-06-03,144.69416726211233,144.69416726211233,142.53106134998768,144.36288452148438,266200
2024-06-04,143.86593620254556,144.58697641568443,142.9402863143089,144.39210510253906,287900
2024-06-05,143.93415699679983,144.40185114677604,143.3105598409219,144.1290283203125,229200
2024-06-06,144.21670298010207,144.21670298010207,141.6735930769153,142.21925354003906,197600
2024-06-07,142.0341260854559,142.57977170193118,141.7223200944826,141.81976318359375,179100
2024-06-10,141.11821719014912,142.07309703669912,140.2997487502491,141.85873413085938,125800
2024-06-11,141.19615110260182,142.00488107976955,140.6505055439649,141.77102661132812,147700
2024-06-12,142.49208619477034,142.56028446504888,140.37770193248102,142.09259033203125,221300
2024-06-13,142.1510502401924,142.77464737345872,141.3033518363989,142.09259033203125,232400
2024-06-14,141.37155067038904,141.6541267179326,139.99768335221012,141.04026794433594,141500
2024-06-17,141.15718412148226,142.92079402863507,140.86488458704773,142.57977294921875,303800
2024-06-18,142.7259022209503,143.9048980222018,142.71616386044363,142.93052673339844,219900
2024-06-20,142.9013112258834,143.74900957513913,141.9366782001001,142.07308959960938,199900
2024-06-21,142.13156155358197,143.3690174832924,141.5859159092863,143.08645629882812,444100
2024-06-24,143.44697885929565,144.43108875923312,142.91107154042683,142.9597930908203,182900
2024-06-25,143.02795993647584,143.0377131650491,140.79665614899386,141.14743041992188,194500
2024-06-26,140.5530858194562,141.07923987621706,139.29615315358203,140.0269317626953,192400
2024-06-27,140.1828155517578,140.19256878158996,138.6238301546421,140.1828155517578,377300
2024-06-28,140.09511712498676,140.62128600098913,136.4996843206381,137.20123291015625,435100
2024-07-01,137.7566365411792,137.85406476284226,134.84326063403208,134.98941040039062,306400
2024-07-02,134.93096624606906,136.8992009132668,134.22941755019122,136.8017578125,259400
2024-07-03,137.2694557978359,137.77611825136836,136.96740302461077,137.60073852539062,143300
2024-07-05,137.37664516545647,137.81510937338362,136.14892754198513,137.2889404296875,207000
2024-07-08,138.01971219176104,138.8479338848322,137.87356241897373,137.88330078125,249300
2024-07-09,137.24996524910202,137.64946111828195,136.16841232749826,136.4509735107422,238400
2024-07-10,137.14277603381836,138.00022763276843,136.96739631643013,137.66893005371094,142000
2024-07-11,137.58123536275357,139.62742120011524,137.1427712169553,138.44842529296875,244500
2024-07-12,139.73463281945706,141.76132750395777,139.73463281945706,140.88438415527344,263900
2024-07-15,141.0500051627038,141.95617833865197,139.471528177945,139.75408935546875,319900
2024-07-16,140.16336802752338,141.5762039487746,140.16336802752338,140.85516357421875,178800
2024-07-17,140.64075316908665,142.0341118919519,140.64075316908665,141.14743041992188,242300
2024-07-18,140.90385313125856,143.47619311255724,140.89411476933762,142.5310516357422,434200
2024-07-19,142.83308821847308,142.83308821847308,140.9525587075407,142.1997528076172,251200
2024-07-22,142.248512205413,143.77826785359764,141.52747188439355,143.41775512695312,235700
2024-07-23,144.08029691478612,144.70389402799864,141.93668276735104,142.2971954345703,234500
2024-07-24,142.32643685826764,142.87208246083867,140.21203784671354,140.44589233398438,250600
2024-07-25,139.60532117118015,140.79777835848,138.03166963150022,138.2955780029297,558100
2024-07-26,139.89854478345555,147.87430433163027,139.13615611277922,143.34884643554688,562800
2024-07-29,143.27064714459567,145.0006898134207,141.8924773081708,144.46310424804688,390900
2024-07-30,144.05261598846926,144.56086524361248,142.1270913586634,142.45941162109375,411000
2024-07-31,143.1924622534942,145.48941215296958,142.12707481683992,143.66162109375,280600
2024-08-01,143.56388751848672,146.1638212279078,142.14661231103588,143.7104949951172,335300
2024-08-02,143.2706626945803,143.68117855788788,140.50455386188017,142.4007568359375,213500
2024-08-05,140.19175816641953,140.19175816641953,136.33094072792318,137.50384521484375,448500
2024-08-06,138.13918435319152,142.7917121263533,137.92415011565598,141.65789794921875,476000
2024-08-07,142.71351863316335,143.93529731272562,140.23087091858068,140.35794067382812,353600
2024-08-08,141.1985404920243,142.8601566956573,141.1985404920243,142.27369689941406,268600
2024-08-09,142.12707150261355,142.12707150261355,140.2308686365047,140.7000274658203,263200
2024-08-12,140.7196176820075,140.92486819964682,139.54671283832863,140.05496215820312,221100
2024-08-13,140.2699807407797,142.0195764047253,139.86924861313025,141.11056518554688,212000
2024-08-14,140.87598685966623,141.54062736485398,140.25043671360459,140.6511688232422,115700
2024-08-15,141.72633364426625,144.01349986295762,141.72633364426625,143.69094848632812,277500
2024-08-16,142.8112726046603,143.52478720605873,142.32256111329048,143.40750122070312,250600
2024-08-19,143.01653650230918,144.39469155874292,142.62555836471478,143.65185546875,191200
2024-08-20,143.66160543616044,144.96157960840455,143.66160543616044,144.76609802246094,387200
2024-08-21,144.8247430345538,146.19314398389653,144.13078115759419,145.95855712890625,267300
2024-08-22,146.1931736416752,147.0044216535608,145.31348394271856,145.6262664794922,200400
2024-08-23,146.28112932183024,147.13148255671317,146.0660950693302,147.04351806640625,221400
2024-08-26,147.2780703191243,149.22314719199284,146.7502685336673,146.7698211669922,235500
2024-08-27,146.62321074365258,148.1186666577194,146.4570506325663,147.78634643554688,208300
2024-08-28,147.52243900517198,148.53896722738338,147.52243900517198,148.11866760253906,249000
2024-08-29,149.10588837840956,149.45776127089994,147.7961450785867,148.84197998046875,187100
2024-08-30,148.76377592556912,149.9757858009324,148.21642143807964,149.73143005371094,178500
2024-09-03,148.67579943804665,148.9397077997503,146.34952813965234,146.65252685546875,362400
2024-09-04,146.22248747836645,147.4931254531261,146.22248747836645,147.32696533203125,175800
2024-09-05,147.66905729781163,148.33369772794828,146.56456461999554,147.3171844482422,200600
2024-09-06,146.9848817009006,149.66301128850816,146.9848817009006,148.93972778320312,319100
2024-09-09,149.12543417994374,149.60436190451168,148.02094141802903,148.48033142089844,241500
2024-09-10,148.4412283503302,149.34045573341479,148.02094361320775,148.08935546875,158100
2024-09-11,147.3856198816263,147.47359929381446,145.2743973606703,147.4344940185547,178000
2024-09-12,147.48335555565916,148.57806454072724,146.58412818731162,148.52920532226562,200400
2024-09-13,148.75401548591918,149.55549462674657,148.47055445109223,148.84197998046875,138600
2024-09-16,149.58482418923165,149.71189396440403,148.63673750637577,149.5359649658203,182900
2024-09-17,150.5231135308557,152.05767450947684,148.4411981620449,149.57501220703125,259900
2024-09-18,150.28854503898594,151.97949745395337,149.26226288919727,149.6141357421875,214200
2024-09-19,151.5201058020689,155.2245321204598,151.5201058020689,153.35765075683594,412400
2024-09-20,152.78099315792383,152.78099315792383,150.9923072031144,152.39002990722656,663300
2024-09-23,152.64413901555898,153.36743736156149,151.24643136778755,152.4388885498047,315800
2024-09-24,152.65389777391002,153.5335873118005,152.50729030807304,153.09375,246200
2024-09-25,153.74863062888252,154.30575394629471,152.35090807666947,153.5922393798828,284100
2024-09-26,154.3741917455601,155.46890073822925,154.13960485529182,154.80426025390625,371600
2024-09-27,155.09747820529003,157.90269242436605,154.68696232514782,156.28016662597656,354300
2024-09-30,155.6937051154717,156.79819789228802,155.34183223436244,156.57339477539062,289800
2024-10-01,156.91547599488553,156.91547599488553,155.45912532444558,156.3583526611328,192200
2024-10-02,156.25083362745252,156.49518936533394,154.39373598527015,155.1658935546875,186900
2024-10-03,154.42305944347365,156.83729535757135,153.10353247642593,155.3516082763672,367000
2024-10-04,156.32899411558148,157.82444970214226,155.73276565259215,156.9545440673828,350500
2024-10-07,155.79144712681207,156.03580287015131,154.4425986510062,155.1072540283203,223300
2024-10-08,154.70649792015064,155.42979624698927,153.5531460383624,155.0876922607422,205900
2024-10-09,154.77493978776437,156.43655592393026,154.55012175690058,156.09445190429688,152600
2024-10-10,154.48172195318833,155.78169644920234,154.48172195318833,155.62530517578125,168500
2024-10-11,157.30645085148657,158.26432115973958,156.72977489447743,157.90267944335938,194400
2024-10-14,161.26503180438755,163.97248287121053,159.76957575499546,163.4153594970703,469700
2024-10-15,163.54239287081296,165.8295586827653,162.73113014312963,164.87167358398438,397300
2024-10-16,164.89122324983595,165.37993464945862,162.17398906107687,162.29127502441406,330000
2024-10-17,163.21007464638268,164.5198326911605,162.76046845617475,164.0995330810547,238200
2024-10-18,165.28222016135715,165.28222016135715,163.99201476040307,164.8228302001953,171500
2024-10-21,164.66643721782916,164.68598985183766,162.5454313137494,162.5747528076172,217900
2024-10-22,161.97854856671012,162.61386758164028,161.08909001437425,162.06651306152344,228500
2024-10-23,162.7506980951874,164.18751109598531,162.40860899432064,163.86495971679688,318100
2024-10-24,164.96261949009553,164.9724146419279,162.8358901424772,163.22792053222656,547300
2024-10-25,165.5506429301697,166.46210050279106,161.3266145463958,165.5408477783203,518900
2024-10-28,166.51109693898178,167.9909874127624,165.39383645811452,165.72706604003906,350000
2024-10-29,165.6584567098737,166.10928794010354,164.29618282133464,165.3350372314453,338100
2024-10-30,164.99203323960487,166.8051234675815,164.76661013936223,165.65846252441406,290300
2024-10-31,165.71726236332717,166.8835285592377,164.511800602721,164.56080627441406,329900
2024-11-01,164.74701596713246,167.57937026995276,164.27657947244072,166.0308837890625,316300
2024-11-04,166.24649215601715,167.16774490614142,164.82540251348084,164.90380859375,191800
2024-11-05,164.39420326637682,166.9619390225879,164.39420326637682,166.91293334960938,206200
2024-11-06,171.6563823010005,171.6563823010005,168.7064263444236,169.70608520507812,264100
2024-11-07,170.72532182060624,171.96019883841325,170.07848290217686,171.22515869140625,412300
2024-11-08,171.21535702617146,174.29272466184403,171.0095541493443,172.25421142578125,309200
2024-11-11,172.80303582480352,174.47891889193963,172.39140020556138,172.63641357421875,189100
2024-11-12,173.12645192520313,173.70469487939047,171.46036389745427,172.19540405273438,179800
2024-11-13,171.99942016601562,172.87166733962042,171.55839900263027,171.99942016601562,168400
2024-11-14,171.65636354138798,172.28359717955007,170.44110677931556,170.6273193359375,198200
2024-11-15,169.51987152643795,170.29410728655165,162.8555040894364,163.16912841796875,620500
2024-11-18,163.07112374085875,164.4726082153111,161.05221564532687,163.36514282226562,384400
2024-11-19,163.1005165746191,164.32558356152833,162.8849035885686,163.57093811035156,287600
2024-11-20,163.66893726279943,165.57024347760301,162.34585903369347,165.3644256591797,221800
2024-11-21,165.32524989622468,166.83452591248917,164.3942019349008,166.49151611328125,205100
2024-11-22,166.7855161620559,168.63783184110315,166.7855161620559,168.0889892578125,241600
2024-11-25,168.61822873869966,170.54893557134125,168.31441450843965,169.0592498779297,270100
2024-11-26,169.41208015284485,169.41208015284485,167.7459918835038,168.60842895507812,140300
2024-11-27,169.22586404114253,170.41173555223975,168.0988083114946,168.3046112060547,167200
2024-11-29,169.14745603968092,170.0295132982539,168.65742921417322,169.5100860595703,117300
2024-12-02,169.52965410896684,169.65706585229,167.43234016931376,169.3140411376953,170900
2024-12-03,169.99030199549844,169.99030199549844,167.6773747915681,168.96124267578125,160100
2024-12-04,168.46139595900706,169.44144946157957,167.61854934861756,169.14743041992188,173400
2024-12-05,168.5790016500735,169.00043244262315,167.12852661860668,167.68716430664062,245000
2024-12-06,168.17719634246092,169.206240613641,167.44215617480054,167.7361602783203,209200
2024-12-09,168.13797668383563,170.00988246476282,166.83450372952439,167.38333129882812,301700
2024-12-10,167.314763972231,167.95179287684704,164.83522938002554,167.5009765625,287000
2024-12-11,168.45160053013603,170.6273204986179,168.32418878959396,168.87301635742188,418600
2024-12-12,168.24578529682086,169.1572428430024,167.37353826575998,168.2163848876953,178300
2024-12-13,167.5009593612563,167.58916059355795,166.43270455823205,166.80511474609375,153200
2024-12-16,166.74630591386563,167.52054161759173,164.24716643769864,164.286376953125,236100
2024-12-17,163.5709465562723,163.58075666350993,159.59193117004511,159.83694458007812,511900
2024-12-18,160.4249962428032,161.14043127304967,154.76028692261104,155.05430603027344,468600
2024-12-19,155.34829094522857,158.34726752667316,155.07387713324243,155.70111083984375,404700
2024-12-20,155.55409383567164,156.59294816043814,154.32902695185643,155.0248565673828,730200
2024-12-23,154.0350301134896,155.7305187378595,153.82922722182215,155.3581085205078,194900
2024-12-24,155.61290160454055,156.24013527889497,154.77005495264896,156.17153930664062,100500
2024-12-26,155.26010295270436,156.44597449127195,155.26010295270436,155.68153381347656,164500
2024-12-27,154.6720636172203,156.39695253937097,154.46624578488056,154.99546813964844,145000
2024-12-30,153.86842421673967,154.34865589247661,151.90831690187673,153.6038055419922,221700
2024-12-31,154.14284841492992,155.0935017229513,153.06478333745213,153.96644592285156,317100
2025-01-02,154.50544526899088,154.95627650847348,150.38922310762084,151.08506774902344,239400
2025-01-03,150.967461006653,152.61395895139125,149.82080000531155,152.39834594726562,250700
2025-01-06,150.92825644983694,151.55549016417848,148.41932159247074,149.8697967529297,369000
2025-01-07,152.8099524460056,152.94715934907052,149.55618233571022,150.36961364746094,361200
2025-01-08,149.84039419615527,151.1830628417546,149.05634832584286,151.07525634765625,228600
2025-01-10,149.67380144035604,151.22228807240447,149.53659452128502,150.3892364501953,350800
2025-01-13,149.87959178115395,151.61429086251573,149.87959178115395,150.82044982910156,349300
2025-01-14,151.72210026466513,152.3493339905026,150.41862714054025,151.52609252929688,196900
2025-01-15,153.0059503798729,153.7899961848265,151.09484901146914,152.45712280273438,206100
2025-01-16,152.78057478429722,154.03504235752092,152.21214182855007,153.2902069091797,346300
2025-01-17,153.83899910671454,154.79944734957013,152.5747217171077,152.97654724121094,231900
2025-01-21,153.59400049694958,157.0633836408648,153.59400049694958,156.6419677734375,270900
2025-01-22,156.16174421991363,157.54362344855716,155.18169057482152,155.8971405029297,280000
2025-01-23,155.29929122166507,156.6223545339136,154.58384136708125,156.43614196777344,149800
2025-01-24,156.46554994853224,157.26920107193223,154.08402689859372,155.14248657226562,329600
2025-01-27,155.09348331003815,155.75011743220608,153.52539155704252,155.29930114746094,317000
2025-01-28,154.42703431386295,157.15158179706276,154.42703431386295,155.26007080078125,204300
2025-01-29,155.61291457845172,155.65212509823508,153.49599514310032,153.97622680664062,265800
2025-01-30,154.67204641153714,155.5148780427438,153.456774720444,154.97586059570312,274200
2025-01-31,154.75045154888468,156.21073674071707,153.63319108572594,154.01541137695312,834100
2025-02-03,151.49670519361857,153.62341996252314,151.06547916592677,152.8687744140625,364600
2025-02-04,152.9765565302281,155.299293635513,152.9765565302281,154.554443359375,302400
2025-02-05,155.56678689466608,156.92313594175852,155.07535781931088,155.60610961914062,262600
2025-02-06,157.1000465610709,157.1000465610709,152.70666933390916,153.76815795898438,446600
2025-02-07,154.91808990897187,155.19328897894562,139.60515881383517,140.72561645507812,1221500
2025-02-10,141.78711035544322,142.12129352206097,138.48470639401995,140.82391357421875,621900
2025-02-11,139.83122949001555,140.6175189886004,137.85567506270266,139.8508758544922,377300
2025-02-12,138.55351384739762,141.03032057107268,137.53133297854282,139.27099609375,423500
2025-02-13,140.30298573463045,141.315328319838,139.03510545706786,140.32264709472656,665900
2025-02-14,141.22689417596524,142.81911962723777,140.27352054231486,142.3080291748047,512800
2025-02-18,142.3080350119088,144.7651805608191,141.4332917963858,144.38186645507812,489600
2025-02-19,143.63488862497093,144.9617531188217,143.1139750082088,144.5194549560547,331000
2025-02-20,144.45065614390467,144.89293928942035,143.41865213955174,144.16561889648438,283100
2025-02-21,144.50962590768984,144.86345542520576,142.71099377675264,143.83145141601562,451900
2025-02-24,143.67418921142476,144.76516229739394,141.88539527604814,143.1139678955078,353300
2025-02-25,143.37937650809408,145.78737639243658,143.22211557757325,145.17800903320312,336700
2025-02-26,144.13613543793164,146.6227652496447,144.10665089449034,144.12631225585938,735600
2025-02-27,143.72335768500795,144.65707002297643,142.86827580669944,143.13365173339844,262800
2025-02-28,143.65455331584818,144.4310046691492,142.15078151982524,144.23443603515625,348700
2025-03-03,144.45066986764067,146.2886098899811,143.19261258000728,144.07717895507812,394100
2025-03-04,143.04518692456787,145.41387896963047,142.65204961296442,143.43833923339844,490100
2025-03-05,143.54646175055214,146.298468067376,143.54646175055214,145.89549255371094,445100
2025-03-06,145.0305485219981,148.9030120941682,144.53911943917907,148.5590057373047,471700
2025-03-07,147.9299644739293,150.73111600559318,146.62276142563442,150.1610565185547,480200
2025-03-10,149.46325521067857,151.36016435752973,147.6646228865031,147.9889678955078,391100
2025-03-11,147.76290385774493,147.9791338698189,144.74553686653798,145.3549041748047,304000
2025-03-12,145.69890235666847,145.69890235666847,143.0648346293028,143.5267791748047,299700
2025-03-13,143.900274240468,144.67672562820923,141.29569098355023,142.27854919433594,238400
2025-03-14,142.74048587257624,144.3720340117381,142.0623113450195,144.14598083496094,223600
2025-03-17,143.99853726172162,145.46300125443267,143.35968548483189,145.3057403564453,225200
2025-03-18,144.86347189053822,145.00107144092166,143.28106956251574,143.7921600341797,219900
2025-03-19,143.83145115048603,144.93226242362806,142.9763694002447,144.46047973632812,279600
2025-03-20,143.62506440139353,144.8929447997195,141.266195873561,142.71099853515625,332800
2025-03-21,141.53158870516717,142.96656835609656,139.91970176702517,142.33753967285156,601900
2025-03-24,143.25159336230843,145.63993176823914,142.42599601190474,145.4532012939453,463800
2025-03-25,145.9446419623594,146.67194754398977,143.4285119857248,144.68658447265625,325200
2025-03-26,144.52930198564368,146.15101202434067,143.79215833219487,146.01341247558594,630400
2025-03-27,145.7382209424352,147.3206233338603,144.50964812291966,146.78988647460938,312700
2025-03-28,146.73089236026235,147.42872827286658,143.2614041546856,144.41134643554688,239800
2025-03-31,144.06733927166468,146.53430765527222,143.59557159214165,145.83648681640625,372500
2025-04-01,146.3279441749535,147.4582251876305,144.85365676856068,146.54417419433594,240000
2025-04-02,145.4630159103769,148.53936692435062,145.4630159103769,147.94964599609375,247600
2025-04-03,144.24427337200635,147.4778854578111,143.9494278906975,146.1215362548828,352900
2025-04-04,142.73068331492644,145.42372045194998,137.63946952988923,137.77706909179688,531600
2025-04-07,134.00287530876898,139.6837941624517,128.60699371434606,132.3418426513672,629900
2025-04-08,135.02506928764396,136.92197848483247,129.0296280479611,131.36883544921875,473800
2025-04-09,130.89704037690942,141.94437131089686,129.06893862699687,141.28585815429688,491800
2025-04-10,137.60012496684226,140.91235174728976,135.21178713929933,138.3470916748047,309000
2025-04-11,138.45522828256912,142.2294151261458,137.3446087271347,141.6396942138672,203000
2025-04-14,143.30071647529343,143.8904223472296,141.32516206166184,143.29087829589844,249300
2025-04-15,143.59558776645045,144.02803277300885,141.30552638075724,141.4726104736328,250700
2025-04-16,141.5905608939007,143.3204010585323,140.12611166033892,142.5144500732422,307700
2025-04-17,142.9075815858467,143.26141115086992,138.2979890544082,141.364501953125,390600
2025-04-21,140.84358440349993,141.58072806053443,138.6812993423107,140.13592529296875,291600
2025-04-22,142.02301901433995,144.3032573833429,141.12861439560723,143.5169677734375,217800
2025-04-23,145.3352389782031,146.76039538307882,144.69638713943039,145.5121612548828,537000
2025-04-24,145.39420527769312,149.3944453214828,142.9665593386668,148.86370849609375,424500
2025-04-25,148.26416156627027,150.3773006417577,145.04038795490476,146.5048370361328,220500
2025-04-28,147.23215717254052,148.44106852493894,145.73820855180134,147.1338653564453,235200
2025-04-29,147.1928200180196,149.37476614585432,146.45567646124366,147.72357177734375,359900
2025-04-30,146.51467265670706,147.41890036144332,144.68655588487232,147.37957763671875,556200
2025-05-01,146.34446689472773,148.3949671666266,144.87560983167245,146.1768798828125,445300
2025-05-02,150.8200800146687,150.82993276495682,145.69382189987473,149.8441162109375,431600
2025-05-05,149.2821880992209,151.046808090152,148.7400010482182,149.33148193359375,267600
2025-05-06,148.11893891054953,149.88354394348798,147.30070935640887,148.77943420410156,312000
2025-05-07,149.72583816830937,150.97781448792617,148.48369955760796,149.24278259277344,318400
2025-05-08,149.63710557992187,152.37768975892342,149.0949184458267,151.18484497070312,302500
2025-05-09,151.72704447410322,152.1115123665735,150.7708011185598,151.14541625976562,231600
2025-05-12,153.58035336298764,154.36900960970033,151.52000038825545,153.31419372558594,352500
2025-05-13,154.0930052362217,154.0930052362217,151.02711471213084,151.46087646484375,339400
2025-05-14,151.44115218055256,151.44115218055256,148.8287440194347,150.31732177734375,350100
2025-05-15,150.18915951898913,153.2747551350197,150.18915951898913,152.7522735595703,278100
2025-05-16,152.97900445208893,154.92106425191258,152.39737629987306,154.78305053710938,278600
2025-05-19,154.14228486208216,156.09419752688567,154.09299102338977,155.837890625,185400
2025-05-20,157.9869833854714,157.9869833854714,155.67032310051184,156.28152465820312,388100
2025-05-21,154.6352065192766,155.41399508535244,153.61981653246397,154.23101806640625,319800
2025-05-22,154.14229666137166,155.02952565627956,153.35364030902645,154.4281768798828,278900
2025-05-23,152.9198641452087,153.964827320536,152.07206127878644,153.72824096679688,260500
2025-05-27,154.8027705397575,156.1927754755183,154.46759652531446,155.916748046875,352800
2025-05-28,155.91675648544185,156.58710455060864,155.02951252332593,155.1675262451172,364400
2025-05-29,155.59144226540175,156.41952463373346,154.59577287317205,156.0843505859375,232100
2025-05-30,155.9956163554189,156.52795067401013,154.31971618579314,156.15333557128906,335100
2025-06-02,155.30554827866962,156.813861590753,153.05788752213863,154.6844940185547,349600
2025-06-03,153.9648340363994,155.20697261718047,153.78739426335522,154.043701171875,397800
2025-06-04,154.2704388516904,154.30001214509375,148.15836414730086,148.27667236328125,831900
2025-06-05,149.43008223768163,151.1651140408049,146.9359674396561,150.32717895507812,482400
2025-06-06,152.1804916708798,152.28893208998258,150.05113941579197,151.13552856445312,264700
2025-06-09,150.544055582443,151.007375533086,149.21319719105352,149.44979858398438,388400
2025-06-10,150.001860330608,150.82994268025288,148.7202957176617,150.36660766601562,323500
2025-06-11,150.82994254149838,151.4115707359019,149.4498052933599,149.7652587890625,380800
2025-06-12,149.2624939294629,152.4269567686982,149.2624939294629,152.16079711914062,337200
2025-06-13,150.82995131844777,151.53974052804173,148.5921432536899,149.01605224609375,361200
2025-06-16,149.09489874958857,150.73134277186625,148.97659053611832,149.53851318359375,346200
2025-06-17,148.52313648415543,149.11461743433793,147.01483824975645,147.33029174804688,379700
2025-06-18,147.0049610386582,148.59212630654162,147.0049610386582,147.5767364501953,383200
2025-06-20,148.1583603569541,148.63156312403586,146.87681089594898,148.16822814941406,570500
2025-06-23,147.3697197894407,151.75660037829923,147.3697197894407,151.6087188720703,356500
2025-06-24,152.37769051720338,152.37769051720338,151.00739089969923,151.68760681152344,246600
2025-06-25,151.67773528253588,152.33823056724884,150.60319885109388,151.74673461914062,264700
2025-06-26,152.3382342669548,153.37334468009956,150.94822928479945,152.2889404296875,658200
2025-06-27,152.4663887853865,153.89581975146424,152.04247985366143,153.6099395751953,643100
2025-06-30,153.8169678164779,154.2803028366932,152.41711000476906,154.21128845214844,315500
2025-07-01,154.21127594013436,157.5334879476997,153.74795599987883,156.7546844482422,338300
2025-07-02,156.7645627082632,158.2531403852606,156.399800331021,158.04612731933594,293500
2025-07-03,158.32215846518048,159.0713736966319,157.55322268905795,158.7559051513672,235100
2025-07-07,158.66717993630388,160.0670377135844,158.27285931033134,158.6770477294922,313900
2025-07-08,158.61788810431491,160.2740678475626,157.58279268744894,157.7799530029297,342700
2025-07-09,157.66165312376677,157.74052026260657,155.8576218513925,157.46449279785156,252800
2025-07-10,156.93215349895374,158.08555716392323,156.0843505859375,156.0843505859375,361600
2025-07-11,156.31107345675375,156.31107345675375,154.40845469060778,155.66043090820312,292000
2025-07-14,154.91121519337966,156.6856880276844,154.46760074539523,155.32525634765625,276600
2025-07-15,155.50272082835133,155.7590277372234,151.88477559675442,151.97349548339844,254200
2025-07-16,151.73689710833995,153.4029296552156,151.37214976104823,152.7818603515625,261900
2025-07-17,152.5452588316346,154.1915706701163,152.31851019393284,153.81695556640625,397700
2025-07-18,154.62533756237983,154.98023213510643,152.72270372898328,154.16200256347656,243100
2025-07-21,154.20143682439874,154.44789098408017,153.03818041103906,153.2451934814453,205900
2025-07-22,153.8958183896831,157.09972209739536,153.0282950337299,156.91241455078125,449900
2025-07-23,157.7996815698846,159.55443403890214,156.88286424485372,159.36712646484375,450500
2025-07-24,159.11996916058192,162.4020082574344,157.96333091025235,159.9701385498047,431900
2025-07-25,160.19750774667867,161.22561221674488,158.94202169024894,159.14962768554688,296300
2025-07-28,159.35722424092228,160.12830639187274,156.35198291982778,156.88580322265625,308500
2025-07-29,157.23180681567746,157.7755224517839,155.4227248360997,157.0044403076172,388200
2025-07-30,156.98466705246165,157.11317068883088,153.1490167817767,154.9976348876953,580700
2025-07-31,153.9991895142297,155.55124919683144,153.40604241980773,155.34364318847656,679700
2025-08-01,155.1755793394096,156.31242693918023,139.47710868616434,139.73414611816406,1012300
2025-08-04,141.4838983520282,141.4838983520282,135.51295211602235,137.53952026367188,839000
2025-08-05,137.74710522774117,139.45733927138946,136.1159735436767,138.61705017089844,540800
2025-08-06,138.70603871474566,139.1508915064958,135.97759518556805,136.95626831054688,515300
2025-08-07,138.2018575966745,139.87254051260254,137.32203237332467,138.88397216796875,564000
2025-08-08,139.08167952516152,140.42613304538742,138.9729364064537,139.1409912109375,428700
2025-08-11,139.71437362843554,140.00105182700324,137.60871811175764,138.27105712890625,349500
2025-08-12,138.61704399688827,139.47709356461323,137.63835597942716,137.885498046875,286100
2025-08-13,138.093132926373,139.82312776063122,137.6581603831194,139.813232421875,729900
2025-08-14,138.58740244327777,138.58740244327777,134.8802710493718,136.758544921875,875800
2025-08-15,136.7783310639517,137.36158282800585,136.2939270940797,137.13421630859375,770500
2025-08-18,137.30227391230105,137.97450831438334,135.77988510875218,136.31370544433594,529500
2025-08-19,136.6893602194093,138.9136391735608,136.6893602194093,137.9942626953125,333100
2025-08-20,138.3105996295714,139.6352775807112,137.6680211600025,139.56607055664062,519200
2025-08-21,139.02237682659523,140.27784781496257,138.6368357597722,139.03225708007812,270400
2025-08-22,139.6451775909557,141.69152157825582,139.57598564145147,139.813232421875,356500
2025-08-25,139.35848463440877,139.99116778923627,137.3714676366746,137.964599609375,245800
2025-08-26,137.48021659858136,138.55775254977684,136.43232140870543,138.11289978027344,442900
2025-08-27,137.49997281529963,138.96306488334525,137.44066112579765,137.84597778320312,729100
2025-08-28,138.56762766903606,138.56762766903606,135.8292890396428,137.30226135253906,320800
2025-08-29,137.57905461233506,138.2710494362034,136.76843641419092,137.67791748046875,370700
2025-09-02,135.84906508939116,136.94637659553402,134.6133546133004,134.85061645507812,310600
2025-09-03,134.524378954303,134.62322673580624,132.90312751096604,133.67420959472656,382300
2025-09-04,134.79130216014153,136.8969425133348,133.49626493537275,136.87718200683594,401800
2025-09-05,137.43077574465525,139.21020178510477,136.0566663464884,137.03533935546875,440800
2025-09-08,137.005687591299,138.3995726215184,136.1060867490136,136.71900939941406,616100
2025-09-09,136.679450849055,137.88550540934673,133.55558641382353,135.48329162597656,637100
2025-09-10,134.57382046722492,135.88861824297987,133.30845412810189,134.69244384765625,685100
2025-09-11,135.18672513791338,136.6992335433112,134.31678014184178,135.53273010253906,477500
2025-09-12,135.05820672958419,135.4832989752159,133.67421703664533,133.68409729003906,261300
2025-09-15,134.41563283006397,134.61334347300513,133.09095492956754,133.30844116210938,298000
2025-09-16,133.2491251648004,133.8719280705481,132.56702565416762,133.66433715820312,474800
2025-09-17,133.8719349467548,135.50308190645822,132.6560000017811,133.11073303222656,377400
2025-09-18,133.35786944137865,133.9608967611341,132.53737095397892,132.9624481201172,254800
2025-09-19,133.12062346030297,133.5555959668464,131.81570594067267,132.90313720703125,877200
2025-09-22,132.58679434770661,133.39742770900972,131.1533731265575,131.2028045654297,402100
2025-09-23,131.48947627590215,132.41873297707602,130.46137178622766,130.51080322265625,319700
2025-09-24,130.49101878119058,131.7860408722646,129.8385600670393,129.99673461914062,353300
2025-09-25,129.99674318999885,131.0050871706818,128.7808082948073,129.32452392578125,388700
2025-09-26,129.82867757462216,130.91609366176084,129.4629121280084,130.77769470214844,274400
2025-09-29,130.88643819323417,131.16323611324975,129.85833378808422,130.7579345703125,540600
2025-09-30,130.20434429084327,132.23089734514227,130.20434429084327,132.13204956054688,310400
2025-10-01,131.8058293753404,132.82405364216999,130.7974853623518,132.6065673828125,310100
2025-10-02,132.13204011531099,132.8536907371308,131.44004533518552,131.6575164794922,398500
2025-10-03,130.95564105191096,132.05295244435536,130.9160898735346,131.6970672607422,402000
2025-10-06,131.37085466398543,131.67730845586786,129.90777764901935,130.37240600585938,447100
2025-10-07,130.59978100603624,130.99520235978133,128.3260705111076,129.09715270996094,438800
2025-10-08,129.68040697400747,130.50092062890886,128.77092577546037,130.10549926757812,361300
2025-10-09,130.19444872342635,131.32141603944422,128.71159619791044,129.11691284179688,554200
2025-10-10,129.4431381350315,130.5008983927555,128.40513838295638,129.43324279785156,426000
2025-10-13,129.49258620457584,130.8370398948493,128.67207258406597,128.73138427734375,311400
2025-10-14,128.55342412283795,129.56176808327064,127.56485575341351,128.31617736816406,337400
2025-10-15,128.31618340743444,128.8994351526004,126.39835826699053,126.6356201171875,438300
2025-10-16,126.97172413317051,128.01960419415852,126.38846487166605,127.6834945678711,352700
2025-10-17,127.68349986264782,128.61275658450555,127.37704606806854,127.86143493652344,339700
2025-10-20,128.12834444492697,128.6028530293001,126.55652438869629,128.51388549804688,240500
2025-10-21,129.11691341640903,130.2636563281568,127.64394113747322,129.07737731933594,311600
2025-10-22,129.15646344187363,130.59978003256464,128.49412438289082,128.57321166992188,357500
2025-10-23,128.73197123448563,130.50805690169727,128.65259098954968,129.75396728515625,378600
2025-10-24,129.73411268037526,129.87302431778892,127.54127703952456,127.87864685058594,489300
2025-10-27,128.1366224648553,128.89071205489756,127.45198112404552,127.7794189453125,521700
2025-10-28,127.74964944095181,128.10685294985234,126.47959588491281,127.10470581054688,413500
2025-10-29,126.29107194406481,126.50936382227088,122.46106236313027,123.34414672851562,651100
2025-10-30,123.07624728804052,124.54474389238906,122.08401698830151,123.39376068115234,702600
2025-10-31,114.39423553008093,117.18240033192052,102.42794018569283,115.108642578125,2758200
2025-11-03,115.18801418737364,115.18801418737364,107.44862223530946,112.24109649658203,1661000
2025-11-04,113.47145606328911,115.0987131260131,111.65567282386979,113.29285430908203,1029100
2025-11-05,113.44168707726934,115.13839990799084,111.8938027289756,114.67205047607422,896900
2025-11-06,114.12632587945619,116.05125508565277,112.91581127124762,115.24755096435547,880300
2025-11-07,115.32692576494694,116.01155949259733,113.7988902652183,115.31700134277344,697200
2025-11-10,115.08879219606841,115.86273063108003,113.11425598749823,115.47576141357422,514000
2025-11-11,116.05125494853503,118.58144524090463,116.05125494853503,117.35107421875,484800
2025-11-12,117.42052991643766,118.74019803055835,116.99387815530137,117.24193572998047,547500
2025-11-13,117.3808436819808,120.93302228660532,117.3808436819808,119.26607513427734,679400
2025-11-14,118.8394216459119,119.75227929014665,117.47014653473461,117.68843841552734,521200
2025-11-17,117.56937122538191,118.56160156840677,116.65652112662708,118.41276550292969,820200
2025-11-18,118.73028226930452,119.1767828797841,117.14270772067383,118.38299560546875,817400
2025-11-19,118.5814455351289,118.5814455351289,116.79542796312874,117.08317565917969,598900
2025-11-20,117.08318073043249,118.68067219177061,116.45807833821543,117.65867614746094,507400
2025-11-21,117.21216086173891,121.29022793939164,117.21216086173891,120.57582092285156,509100
2025-11-24,119.91103668470342,121.44899676039621,119.50422617630296,120.5262222290039,740000
2025-11-25,121.45891525209124,123.11593804438662,121.45891525209124,122.48091125488281,543600
2025-11-26,122.06416725085363,123.55251268958358,122.06416725085363,122.84803009033203,538000
2025-11-28,122.66943052847252,125.10039933060551,122.66943052847252,123.78073120117188,315700
2025-12-01,123.90971816318398,123.9890984046682,122.07409360703122,122.32215118408203,536800
2025-12-02,122.80834273936739,122.8976474041654,119.86142506313116,120.65520477294922,325400
2025-12-03,120.50636459439258,123.29453683156571,120.46668204485655,121.11162567138672,543100
2025-12-04,121.25053931737644,123.11593712141129,120.9826404679227,121.07193756103516,708000
2025-12-05,121.0421717426921,122.55036603254122,119.6828210814482,120.96279907226562,537000
2025-12-08,119.98048683677486,121.15131890116776,118.37307858523162,119.13709259033203,496600
2025-12-09,118.67074319979267,118.91880077653559,114.46368881786525,114.82089233398438,640300
2025-12-10,115.2673979458709,116.88473826129054,114.23547747342825,116.25962829589844,734700
2025-12-11,117.04347933154511,117.74796190032998,116.24969967395411,117.09309387207031,389700
2025-12-12,117.5991381446397,120.69489957224027,116.73590258212603,120.5262222290039,656400
2025-12-15,120.53613763713133,121.508519071394,119.54390735802136,121.37953186035156,588600
2025-12-16,121.71688801826957,122.88772006482098,118.59136108661724,121.87564849853516,644800
2025-12-17,121.16124681536517,123.63189822994175,119.14702044648554,122.66943359375,567300
2025-12-18,122.70911937736454,123.15562755440962,121.08186229106413,121.66728210449219,457100
2025-12-19,122.38168448192317,123.36399795279324,120.31785116207733,120.44683837890625,1300400
2025-12-22,120.44683702770696,122.73888662712453,120.1293236305144,121.78634643554688,527800
2025-12-23,121.91534038479175,122.07409329724082,120.37738038293297,121.2406234741211,311700
2025-12-24,121.57798039532113,122.21300719710743,120.81396637664959,121.79627227783203,198000
2025-12-26,121.41922894554897,122.52060522415447,120.77427771310445,122.29238891601562,306000
2025-12-29,122.33208105068077,123.34415267923492,121.36961639767443,122.25270080566406,400200
2025-12-30,121.8458854019756,123.3342308707125,121.46883303835433,121.78634643554688,289800
2025-12-31,120.57582164498164,122.37176361957204,120.40714431232067,121.01240539550781,314300
2026-01-02,120.79411858954116,122.04433092844077,119.84157837851366,121.58790588378906,295100
2026-01-05,120.81396333104647,123.61205247154165,120.81396333104647,122.04432678222656,435700
2026-01-06,121.2703893294616,121.89549169761267,119.17678277613919,119.62328338623047,777200
2026-01-07,119.73243542753909,121.00248907397176,116.6962129559037,119.50422668457031,478500
2026-01-08,118.98826090452039,122.41146012961788,118.59136725333443,121.48868560791016,330000
2026-01-09,121.13148146291526,123.9990265337246,120.51629592819934,122.88772583007812,429100
2026-01-12,123.0365583546262,124.32646078477775,122.02448676997972,124.15777587890625,477300
2026-01-13,124.07840343065625,124.46537264637453,121.58790323017156,122.54044342041016,351900
2026-01-14,123.14570153346037,126.1720069370604,123.14570153346037,125.86441040039062,611700
2026-01-15,126.15215809530929,126.23153833510459,123.5525120178855,124.13793182373047,381000
2026-01-16,123.03655288156622,124.22722617172847,122.28245576040153,123.74103546142578,363400
2026-01-20,123.92956647771405,124.55466884396232,122.4809111423571,122.85795593261719,275100
2026-01-21,123.34415338455338,124.64398030125511,122.93734287422093,124.0387191772461,421000
2026-01-22,124.07840219082979,125.42783600604635,123.09608874217598,123.5029067993164,369700
2026-01-23,123.37391303470616,125.29884225734148,122.90757114819523,125.0210189819336,429500
2026-01-26,125.43775721229031,126.00332820078921,124.12801347207618,125.36830139160156,315400
2026-01-27,123.9791728132312,125.3186897727715,123.205234391347,123.77080535888672,303100
2026-01-28,123.23499911768216,124.09824219611878,122.29238336925172,122.73888397216797,347800
2026-01-29,123.32430960117436,124.30661551602421,121.63751348474041,122.88772583007812,386000
2026-01-30,121.9550286222896,124.03871071803064,121.70697104969861,123.97917175292969,512700
2026-02-02,123.23499750184895,124.93171793896286,123.23499750184895,123.860107421875,489100
2026-02-03,122.94725978548665,126.93602225021577,122.72896790883826,123.66165924072266,658700
2026-02-04,125.21552867481128,129.90700134775133,124.20949930267037,128.7216796875,589400
2026-02-05,127.16782066467043,128.5722782146923,121.48028130551128,123.49234008789062,2144200
2026-02-06,127.02836268310486,135.45509216979158,127.02836268310486,133.7816925048828,1045700
2026-02-09,133.05457384055362,139.02101804829903,132.72587004959905,137.9253387451172,1043400
2026-02-10,137.26793457923543,140.37565748193367,137.26793457923543,139.61865234375,622100
2026-02-11,138.48313331396238,139.99715874839507,138.05483198642824,139.4592742919922,584300
2026-02-12,139.60869173387061,141.44145054391814,138.84171623230802,139.95730590820312,572700
2026-02-13,139.9573151020267,142.3677944950846,139.85771755943315,142.01918029785156,471900
2026-02-17,138.71222079286514,143.055071512211,138.71222079286514,141.0928192138672,614700
2026-02-18,140.9135352437976,142.54708376856578,140.2860084572567,141.1625518798828,582000
2026-02-19,141.0928230678908,142.7562676088946,140.4752666602554,142.59689331054688,525500
2026-02-20,142.55704525117903,144.56910401516237,141.44145553591065,144.47946166992188,664500
2026-02-23,142.9255958993581,145.6647789342487,142.5670113304762,145.14682006835938,513500
2026-02-24,145.49544486452967,146.33213709933392,143.28417595914058,143.57302856445312,429800
2026-02-25,141.8498473766502,143.0949306198296,139.87762457633954,142.1187744140625,348900
2026-02-26,142.95547535989397,143.35389589996325,140.44538340090327,141.23226928710938,331300
2026-02-27,140.97329664666827,143.44353741820976,140.44538259466083,143.1447296142578,344600
2026-03-02,142.43751420451355,142.78614357053576,141.06293752550724,142.1088104248047,335000
2026-03-03,140.08679425249235,140.76412738697488,136.38142559574294,139.2102508544922,347300
2026-03-04,138.79191754238275,138.9612470419286,135.47501391314069,136.50096130371094,389000
2026-03-05,135.46505150535157,135.80371048641027,133.88130933030985,134.20004272460938,452300
2026-03-06,133.47291651624107,133.47291651624107,130.48471689274314,131.5604705810547,398500
2026-03-09,130.45484354440993,133.45299853256722,127.02837201579013,133.22390747070312,545700
2026-03-10,132.82547764917305,133.60240832546756,130.88313575966777,131.6102752685547,503100
2026-03-11,131.2815812945587,132.75575561111177,129.5284943463408,131.50071716308594,563800
2026-03-12,130.7536581494707,132.26766833775483,128.13399830193273,128.35313415527344,620600
2026-03-13,129.6380511924889,129.6380511924889,126.55025410703881,128.14395141601562,660600
2026-03-16,128.97069022910543,130.8931065380538,125.50438295551326,128.54238891601562,370700
2026-03-17,129.45876833048925,130.50464122844355,127.73557748644285,128.99061584472656,276700
2026-03-18,123.89075860801685,126.08210964583039,120.94240244020646,123.73139190673828,910500
2026-03-19,122.52615308632394,124.32903117833895,120.97228404186016,123.48237609863281,518500
2026-03-20,123.77123411184346,123.77123411184346,119.83676660084556,120.58381652832031,1481500
2026-03-23,123.02418368013113,125.84304628604973,122.50622481021608,123.65170288085938,455200
2026-03-24,122.67556308818467,124.72745780194329,122.38670286935901,123.66166687011719,405000
2026-03-25,124.94659356774676,126.07214606142944,123.22339504970952,125.3250961303711,337200
2026-03-26,124.72746089618293,126.83911722505529,123.6317891558115,124.19954681396484,442100
2026-03-27,123.45249678230496,123.72143142045898,121.28107129127055,121.51016235351562,381400
2026-03-30,122.07791483255923,123.45249154525831,120.62365857080745,122.87477111816406,562000
2026-03-31,123.90072145898677,126.46061226934556,123.1038651540704,125.52430725097656,557800
2026-04-01,126.83910993884153,128.13399948450484,125.83308820196113,126.25143432617188,380200
2026-04-02,124.64777023751822,126.5900970135599,123.76127159620845,125.51435089111328,297500
2026-04-06,124.0999305830527,125.6936431780852,124.0999305830527,125.51435089111328,461100
2026-04-07,124.82706080661809,126.6697824199569,124.30910953992999,125.11592102050781,376900
2026-04-08,130.86323514521675,132.1481543754263,127.64592907491694,131.50071716308594,645200
2026-04-09,130.70386349661462,131.91906599267529,126.83912013545304,130.88314819335938,424100
2026-04-10,131.7298075164679,132.178034445579,130.3353203595067,130.98275756835938,407400
2026-04-13,130.28551770076956,131.89914077103793,127.07818194963497,131.59036254882812,396300
2026-04-14,130.71381054193466,132.197955189354,130.45483870763653,130.4946746826172,315500
2026-04-15,130.29547082253353,130.51460669263554,128.0941721257409,129.14002990722656,407100
2026-04-16,126.40084558822308,129.81735412824597,126.40084558822308,127.78536987304688,393800
2026-04-17,129.14002424182965,131.7796097617975,129.14002424182965,130.11618041992188,401100
2026-04-20,130.05641512792803,131.47082778766443,129.1499909308814,130.405029296875,403600
2026-04-21,130.18589466096142,131.72980084865796,126.1916732788086,126.1916732788086,310200
2026-04-22,126.77935427393615,126.77935427393615,122.47634691200882,124.06009674072266,458900
2026-04-23,124.88682675562279,126.93872910578784,123.95052932532681,124.44856262207031,440800
2026-04-24,123.9206456254592,123.9206456254592,122.08787918491913,123.5919418334961,440900
2026-04-27,123.55209914216728,125.73348737793874,123.05406585359005,124.23938751220703,359700
2026-04-28,125.62392082821759,126.15183490401432,123.23335949687649,125.2752914428711,354300
2026-04-29,124.64776713863216,125.4047798425139,122.30701227202618,122.41658020019531,448400
2026-04-30,122.94449532386469,125.58407321741664,121.40058912214994,123.19351196289062,764800
2026-05-01,126.70962950793603,127.97463072857443,117.4362520229959,118.55184173583984,989400
2026-05-04,118.21317963909578,121.27110367417347,116.9979772200526,120.12562561035156,739600
2026-05-05,120.42445055667139,123.22339520339091,120.34476340674007,121.55000305175781,628600
2026-05-06,123.18000030517578,126.38999938964844,121.66999816894531,122.62999725341797,917000
2026-05-07,122.94000244140625,126.47000122070312,122.56999969482422,125.11000061035156,749700
2026-05-08,125.2300033569336,125.86000061035156,120.38999938964844,120.98999786376953,794900
2026-05-11,121.22000122070312,121.22000122070312,119.44000244140625,119.95999908447266,706100
2026-05-12,120.44999694824219,120.86000061035156,117.13999938964844,118.05000305175781,696600
2026-05-13,118.0,118.75,116.43000030517578,117.87999725341797,679500
2026-05-14,118.7300033569336,120.16000366210938,117.04000091552734,117.98999786376953,531000
2026-05-15,117.91000366210938,117.91999816894531,114.47000122070312,114.66999816894531,447000
2026-05-18,115.5999984741211,117.31999969482422,115.16999816894531,115.80999755859375,433100
2026-05-19,115.88999938964844,116.04000091552734,112.44999694824219,113.61000061035156,575800
2026-05-20,114.06999969482422,115.44999694824219,111.55000305175781,115.26000213623047,562600
2026-05-21,116.5,116.5,112.7699966430664,115.51000213623047,345600
2026-05-22,115.80000305175781,116.80000305175781,114.70999908447266,116.2300033569336,405800
2026-05-26,116.19999694824219,116.97000122070312,115.37000274658203,116.37999725341797,344500
2026-05-27,116.94000244140625,118.11000061035156,114.7300033569336,115.30000305175781,464000
2026-05-28,114.80999755859375,116.33999633789062,113.3499984741211,115.98999786376953,510100
2026-05-29,115.05999755859375,117.26000213623047,113.75,115.8499984741211,559600
2026-06-01,114.69000244140625,115.12999725341797,112.02999877929688,112.37999725341797,706800
2026-06-02,111.94999694824219,113.05000305175781,111.23999786376953,112.18000030517578,452400
2026-06-03,111.69000244140625,114.0199966430664,111.69000244140625,112.52999877929688,372600
2026-06-04,114.94999694824219,115.76000213623047,111.54000091552734,112.55000305175781,337600
2026-06-05,113.08999633789062,114.58999633789062,111.9800033569336,113.36000061035156,466300
2026-06-08,112.26000213623047,112.63999938964844,110.94999694824219,111.94000244140625,422200
2026-06-09,113.27999877929688,116.1500015258789,112.66999816894531,115.9000015258789,444400
2026-06-10,116.1500015258789,116.55000305175781,113.37000274658203,114.66999816894531,496800
2026-06-11,115.11000061035156,117.01000213623047,114.26000213623047,116.58000183105469,395200
2026-06-12,117.9000015258789,118.47000122070312,116.37999725341797,117.72000122070312,342600
2026-06-15,118.69999694824219,120.73999786376953,117.55999755859375,118.08000183105469,576100
2026-06-16,118.5,121.05000305175781,113.7699966430664,120.6500015258789,474700
2026-06-17,121.62000274658203,122.3499984741211,119.45999908447266,119.98999786376953,680500
2026-06-18,120.45999908447266,122.55000305175781,119.11000061035156,120.31999969482422,750600
2026-06-22,119.55999755859375,121.01000213623047,118.87999725341797,120.0,468400
2026-06-23,120.36000061035156,122.58000183105469,119.08000183105469,120.61000061035156,514100
2026-06-24,121.9800033569336,125.05000305175781,121.7699966430664,124.27999877929688,404900
2026-06-25,125.7300033569336,128.13999938964844,124.9000015258789,126.43000030517578,363500
2026-06-26,125.94000244140625,127.12000274658203,124.76000213623047,125.9800033569336,727400
2026-06-29,125.61000061035156,126.05000305175781,123.91999816894531,125.29000091552734,446600
2026-06-30,124.5999984741211,126.30999755859375,123.94000244140625,125.19999694824219,329300
2026-07-01,125.12000274658203,126.83999633789062,124.0999984741211,125.25,405600
2026-07-02,126.2699966430664,128.22999572753906,125.41000366210938,126.9800033569336,468400
2026-07-06,126.43000030517578,127.05000305175781,124.18000030517578,126.01000213623047,431400
2026-07-07,126.62999725341797,128.71499633789062,126.16000366210938,128.60000610351562,80501
