Date,Open,High,Low,Close,Volume
2023-10-02,119.78395548707734,120.69775382607703,119.26453489555266,120.28414154052734,244100
2023-10-03,119.29340648562564,120.53424350988173,117.82171828016256,118.18724060058594,236300
2023-10-04,118.84132265546667,119.90901943753225,117.66781755527735,119.49540710449219,208200
2023-10-05,119.23569473519102,120.16872773211533,118.11990791789228,119.03369903564453,466700
2023-10-06,118.8990326896935,121.86165089685026,118.6874160550928,121.59232330322266,491700
2023-10-09,121.02479420203984,122.37143938534139,120.89975135607021,122.10211181640625,275700
2023-10-10,122.39069575140489,123.70848569285894,121.68852122697024,121.71737670898438,322000
2023-10-11,122.66961669921875,122.83313595291355,121.82315761659957,122.66961669921875,212900
2023-10-12,122.37143953710256,122.54457973715071,120.29375713652479,120.6400375366211,189300
2023-10-13,121.19793811935457,121.842401584592,120.6208065484162,121.16908264160156,324900
2023-10-16,122.50611121132462,122.57344310797819,121.36146162958764,121.8808822631836,275200
2023-10-17,121.20755159366114,123.44874584509314,121.20755159366114,122.62152862548828,314400
2023-10-18,122.03478544306672,122.80429176930639,121.46726746403726,121.94821166992188,287300
2023-10-19,121.27488424535677,122.61190845722675,120.61117893923942,120.93822479248047,443900
2023-10-20,121.13060925368268,121.65965082113568,117.28305556639171,117.56200408935547,446500
2023-10-23,117.08105478916937,118.46617640474612,116.59048966054829,116.86943817138672,379000
2023-10-24,117.47543620540878,119.05293270920211,117.08106574877378,118.63932037353516,312100
2023-10-25,118.15677276144453,119.4596516517281,117.63561973271062,118.09886932373047,431300
2023-10-26,117.02759913247053,121.01344487283436,117.02759913247053,119.12185668945312,576000
2023-10-27,119.16046741363326,119.51754841038496,116.1590166748117,116.94074249267578,364000
2023-10-30,117.66457150071054,118.0506115995379,116.63191847013125,117.90584564208984,283100
2023-10-31,118.23397067850544,118.60070468662809,117.57770478395322,118.0023422241211,422900
2023-11-01,117.84794906764095,119.12187631379118,117.36540075677947,118.63932800292969,360500
2023-11-02,119.40173736847875,119.95184206610242,118.68756803683264,119.2666244506836,384300
2023-11-03,120.086951292021,121.57320070517726,120.086951292021,120.97483825683594,278000
2023-11-06,120.89762906096666,121.34157990752995,120.39578214669304,120.82042694091797,173500
2023-11-07,120.27033050946704,120.62741150810513,119.83603265928002,120.20277404785156,205000
2023-11-08,120.5212478211661,121.10995727302534,120.06765865285827,120.75287628173828,175800
2023-11-09,121.30297581014376,121.30297581014376,119.73951690200494,120.04834747314453,118600
2023-11-10,119.90358602094061,121.39948852773999,119.56580372159614,121.3319320678711,195600
2023-11-13,121.01344761610507,121.10031012853287,120.02905244156845,120.18346405029297,183100
2023-11-14,121.55391115797988,123.39724915782807,120.936249936579,123.3875961303711,267400
2023-11-15,123.35864839876807,124.304446316357,122.90505181396026,123.25248718261719,388600
2023-11-16,123.19458405532637,124.13072158442283,122.41285079230998,123.09807586669922,217000
2023-11-17,124.07280612990299,124.57466044313415,123.1559673820683,123.46479797363281,162700
2023-11-20,123.00155853990697,123.19458227747852,122.01716324915157,122.8760986328125,213900
2023-11-21,123.01121297209009,123.8218979529415,122.76028579193338,123.44551086425781,160600
2023-11-22,123.96665215202738,124.69047458350228,122.91470041923974,124.08247375488281,174800
2023-11-24,124.46850623760841,124.46850623760841,123.6288769312162,124.04386138916016,65900
2023-11-27,123.3586396115106,123.82188919108859,122.42249478837549,122.5672607421875,367500
2023-11-28,122.56726027052797,122.57691329757223,121.10996243713889,121.22577667236328,218000
2023-11-29,121.25472870985266,121.98820414200175,120.55985802288006,120.99415588378906,331800
2023-11-30,121.07136390507863,122.69272646591232,120.45370267838986,122.46110534667969,301000
2023-12-01,122.0075133766965,124.05351350614691,122.0075133766965,123.6288833618164,218300
2023-12-04,123.00155352374544,124.38164926101614,122.46110180679085,123.93769836425781,192000
2023-12-05,123.77364210066986,124.1982869716721,121.48636044972991,121.59252166748047,178000
2023-12-06,121.9785653558879,122.85680684420771,121.48636400130093,121.95926666259766,179500
2023-12-07,121.83378385096688,122.67342048254547,121.59250971853534,122.07505798339844,254000
2023-12-08,121.94960678177719,123.04981631507553,121.23543736051924,122.8760986328125,265800
2023-12-11,122.81819302140134,123.22353181848027,121.93029857047753,123.11737060546875,338000
2023-12-12,123.19456695353703,123.62886478672449,122.25842219129277,123.03050231933594,210300
2023-12-13,122.7409634766871,124.48779301072071,122.7409634766871,124.10174560546875,425000
2023-12-14,124.57465522525729,125.47218788178063,122.45143855446896,122.95329284667969,412900
2023-12-15,122.72167704235878,124.09211233389199,121.57320982713335,121.5828628540039,713000
2023-12-18,122.28738762368339,122.76993591705903,121.48635568953519,122.61552429199219,240500
2023-12-19,123.25248124676398,123.65782739941075,121.63111872548421,121.82414245605469,659100
2023-12-20,121.62145477599356,122.5093491306757,121.08100310513626,121.18716430664062,346400
2023-12-21,121.8337731669589,121.8337731669589,120.4922896973268,121.51529693603516,421900
2023-12-22,121.98820682835046,122.60586803857178,121.71798096926643,121.86273956298828,312200
2023-12-26,121.7372726533808,122.44179634238442,121.20646662994645,121.43809509277344,274700
2023-12-27,121.71797248147908,122.05575478177946,120.66601347414141,120.90728759765625,283100
2023-12-28,120.61777069727657,121.40914957794178,120.05801292816882,120.83008575439453,343600
2023-12-29,120.82043808829643,120.98450273280184,119.24732601714967,119.30523681640625,313500
2024-01-02,118.33049161771078,119.76848345240212,118.02166100831862,118.591064453125,313100
2024-01-03,120.78182769015574,122.81818188143322,118.85163470226065,120.9844970703125,531700
2024-01-04,120.81079207973853,121.52496149850643,119.79743770955358,119.8843002319336,353300
2024-01-05,119.45963623768402,120.02904696644276,118.69720916604861,119.86497497558594,423000
2024-01-08,119.73953974409099,120.7914989097474,118.0988784025131,120.009765625,352400
2024-01-09,119.39209643843853,120.28963654792885,118.6779270344352,120.27998352050781,250300
2024-01-10,120.11590329259948,121.04239500109803,119.89393523241942,120.82042694091797,279600
2024-01-11,121.0038017297732,122.53830905966294,120.57916425839741,122.412841796875,323100
2024-01-12,123.42620632136199,123.50341581821841,121.52496479911424,122.01716613769531,231700
2024-01-16,121.48634817990717,122.39354127156845,121.12926717726768,122.3838882446289,257500
2024-01-17,121.54425926799404,122.82783205612957,121.4960014962835,122.26808166503906,336900
2024-01-18,122.87608540424257,125.47218996794025,121.9013358829781,124.63256072998047,444200
2024-01-19,125.18268267158516,126.87160167039863,124.0535067247466,126.23463439941406,418000
2024-01-22,126.33112146870488,127.20936278677414,126.00299220465814,126.61100769042969,266200
2024-01-23,127.19973175247551,127.24798952655084,125.78103860665047,127.22868347167969,217800
2024-01-24,127.50855793954003,127.67262259421514,125.9837035460705,126.21533203125,294400
2024-01-25,127.42168888189254,127.75947854516052,125.82928555780933,126.66891479492188,332300
2024-01-26,127.08389676698607,127.9621380935772,126.81367093206627,127.10320281982422,219900
2024-01-29,126.47590503677381,127.9621472350077,125.93545332832512,127.63401794433594,187800
2024-01-30,127.42169552655902,128.44469550700896,127.03566279943983,127.63401794433594,228400
2024-01-31,128.14710349111215,128.53435148166193,125.03951776645216,125.7365493774414,537500
2024-02-01,126.29804406272626,126.92730171682662,125.47515503321043,126.33676147460938,298800
2024-02-02,125.81399845204739,126.54007181280666,124.58451009166825,125.94953155517578,344800
2024-02-05,125.01047371963757,127.25645293560962,123.96492632234019,126.48197174072266,319500
2024-02-06,126.31739050105034,127.20803865994195,125.17504224464571,126.94666290283203,369700
2024-02-07,127.21772598525038,128.19549937263756,125.24279834775675,127.59528350830078,393000
2024-02-08,127.44039987265825,130.53831002584943,127.3435841792457,127.90508270263672,620700
2024-02-09,127.8953806808624,134.76887988039556,127.31451618411394,134.52685546875,650900
2024-02-12,134.72049474500278,135.98870051220734,133.12312449577541,133.21994018554688,491300
2024-02-13,132.32926952401746,132.94885142624398,130.67381605056968,131.593505859375,275900
2024-02-14,131.91298811347036,133.0747171783735,130.85776515911542,132.79396057128906,335000
2024-02-15,132.7939713432345,133.4135533345092,130.27692596643098,130.73191833496094,471400
2024-02-16,131.0514260757376,133.59752863103694,130.73195195202294,133.1134796142578,453900
2024-02-20,132.76494422449613,135.6692378984507,132.58100326162543,135.2335968017578,373000
2024-02-21,134.6430432067918,135.6401827546635,134.5559179504535,135.53369140625,276300
2024-02-22,135.9887045298492,137.87649236016304,135.60147130332354,136.95680236816406,295700
2024-02-23,137.44085155268917,137.51830115254398,136.11456223867728,136.85031127929688,190300
2024-02-26,136.98584148427423,137.5279738997732,136.3081759649005,137.39244079589844,199200
2024-02-27,137.39242389962342,137.64412398386563,135.3400615013445,135.8337860107422,244600
2024-02-28,135.19485448974754,136.73414124839545,134.88507086916457,135.9306182861328,189600
2024-02-29,136.14360929042408,137.1117071682836,135.36912803373622,135.97903442382812,250600
2024-03-01,135.41752898322991,136.298486780481,135.10773058753682,135.81443786621094,151400
2024-03-04,136.20170952806765,137.58608257287685,136.0758520614475,137.4311981201172,260300
2024-03-05,137.73128791076408,138.64130227082694,137.21819722213309,137.9733123779297,190200
2024-03-06,138.3702046969849,139.05756060105247,137.93456366268825,138.50575256347656,184000
2024-03-07,139.8901458387967,140.5097279007667,139.25119768276474,140.0353546142578,250100
2024-03-08,140.09344450787563,140.44196032011527,138.40894895338388,138.52511596679688,185200
2024-03-11,138.23471815957427,138.80590725273757,137.45056107933843,138.1863250732422,226700
2024-03-12,138.24436356711726,138.2927714096869,136.9664674288769,137.86680603027344,242200
2024-03-13,138.43798895737592,138.43798895737592,136.4340193693208,136.6566925048828,336800
2024-03-14,136.8503260525416,137.10202620024066,135.88222810784958,136.4340362548828,235200
2024-03-15,135.57242007632507,137.86682208776077,135.2820025310812,136.50180053710938,599500
2024-03-18,136.43402821831805,136.79223448171572,134.49783244298447,134.8173065185547,299700
2024-03-19,134.44943456936542,135.84349784138894,134.44943456936542,135.059326171875,253000
2024-03-20,135.17550421499809,135.6014696220955,134.70113096218498,135.50465393066406,220000
2024-03-21,135.83379094940284,137.08264530093032,134.8560175541442,136.63731384277344,255800
2024-03-22,137.47955153920302,137.90551689840717,136.55018600275653,137.0729522705078,276000
2024-03-25,136.69539997271303,139.45448448167053,136.66635822183974,138.39926147460938,316300
2024-03-26,138.27343080301986,139.7062116207552,138.07012373555634,138.63162231445312,314200
2024-03-27,139.08663687316903,140.5194177665606,139.08663687316903,140.04505920410156,218200
2024-03-28,140.1999296948087,140.71302034415112,139.06724227584522,139.29959106445312,247800
2024-04-01,139.2028031090346,139.2028031090346,137.5860812427115,137.7506561279297,204400
2024-04-02,137.31500593788894,137.31500593788894,135.91126690307195,136.14361572265625,202600
2024-04-03,136.1823130834933,136.68572806578385,135.40783190427706,136.3856201171875,258700
2024-04-04,137.30530909164867,138.19595727130007,136.47274441493107,137.2278594970703,403600
2024-04-05,136.8696555082221,138.2056202693039,136.45336582200216,137.20848083496094,288300
2024-04-08,137.15040168122644,137.83775755940698,135.91123778625203,136.02740478515625,312500
2024-04-09,135.94027734869056,136.59859146655273,134.91409614955109,135.8337860107422,242600
2024-04-10,134.54623575653343,135.74668241469655,134.03314507512525,134.9528350830078,200700
2024-04-11,134.8173099688125,135.57242515875745,134.03315302325444,134.69146728515625,265300
2024-04-12,133.76208470665995,134.51719988484666,131.62259662579817,132.82302856445312,299200
2024-04-15,134.18804610778258,135.3497605952717,133.4329309523146,133.79112243652344,319600
2024-04-16,133.3941591179165,134.943121155521,132.97788424885837,134.16864013671875,281700
2024-04-17,134.44945414271976,135.03030407595662,133.93636338762582,133.98475646972656,565400
2024-04-18,133.9750570093757,134.99156267697953,133.81048215225894,134.67208862304688,246600
2024-04-19,134.6237091251192,135.45627401831655,134.34296719727521,134.894775390625,276600
2024-04-22,135.09803598219477,136.64698342744765,134.80760371996035,135.84347534179688,298800
2024-04-23,135.31104215956182,136.65669759538656,135.06901769432713,135.6789093017578,417200
2024-04-24,135.88281662716403,136.80520507967753,135.5818281146395,135.94107055664062,559200
2024-04-25,135.7759941871754,137.14502060339382,134.88273282197122,136.10610961914062,694400
2024-04-26,137.87324676430742,144.194050138077,137.7761470024205,139.1645965576172,489500
2024-04-29,140.68896186966708,143.71829961506626,140.17436572617285,142.12596130371094,676700
2024-04-30,141.50455876401378,141.85409715843193,139.87337465161463,140.18408203125,585100
2024-05-01,140.77636391358544,142.9318483462627,140.37827561400445,141.155029296875,359600
2024-05-02,141.5239675984383,142.46577897675033,141.06762539181938,141.6793212890625,356500
2024-05-03,142.8347262098354,142.85414912308485,140.63069223929037,142.54344177246094,303300
2024-05-06,143.46584874866832,144.74749451317692,142.88329461371845,144.70864868164062,260200
2024-05-07,144.00957355262796,146.00970404941293,144.00957355262796,145.36888122558594,392900
2024-05-08,145.36887962927,146.4854527186998,145.13584910988936,146.40777587890625,223500
2024-05-09,146.6116974972741,147.32047837661355,144.31057824435283,144.74749755859375,299100
2024-05-10,144.6212448665183,144.66979474057337,143.7862374049322,144.17462158203125,186300
2024-05-13,144.21348527947174,145.1358738342205,142.59201986283358,143.57266235351562,167500
2024-05-14,143.9901756525385,143.99987970355167,143.18429495809386,143.60179138183594,137600
2024-05-15,143.66001677139636,144.02896319801914,142.50459798974526,142.99977111816406,211100
2024-05-16,143.08718529410942,143.6017814537863,142.17450084023903,143.2522430419922,235500
2024-05-17,143.5532556287275,143.8639482284669,142.85417876013253,143.37847900390625,169500
2024-05-20,143.30079134207162,144.09696792166733,142.7667722722628,143.8639373779297,163400
2024-05-21,143.64063969473372,144.3591246810753,142.8153360686792,144.27174377441406,280400
2024-05-22,143.7668346921676,144.50474243328088,143.18426581237048,144.4658966064453,283300
2024-05-23,144.3396862943476,144.62125187296155,143.27164827475897,143.427001953125,171700
2024-05-24,144.1649049429506,144.50473925123936,143.07745886097342,143.78623962402344,162300
2024-05-28,143.32992330845792,143.48527700970283,141.58224602315815,142.44638061523438,318400
2024-05-29,141.41717982275944,142.4366681619791,140.31031057840968,140.63072204589844,229700
2024-05-30,140.91228668269574,142.70851373087208,140.78605995699684,141.89292907714844,328100
2024-05-31,141.84439598117072,143.533834234088,141.67933822091052,143.3979034423828,358900
2024-06-03,144.18436357277287,144.18436357277287,142.02887897251793,143.854248046875,266200
2024-06-04,143.35904679128393,144.07754653057066,142.43665828749494,143.88336181640625,287900
2024-06-05,143.42703109057712,143.8930774050111,142.80563106621676,143.6212158203125,229200
2024-06-06,143.70858196047192,143.70858196047192,141.17443223714181,141.71817016601562,197600
2024-06-07,141.53370652800731,142.0774297069287,141.22299910271195,141.32009887695312,179100
2024-06-10,140.62102456949881,141.57254015009673,139.80543978612914,141.3589324951172,125800
2024-06-11,140.69864968580106,141.50453012134668,140.15492669684025,141.27149963378906,147700
2024-06-12,141.9900224631697,142.05798044025738,139.88308812796836,141.59193420410156,221300
2024-06-13,141.6501881317032,142.27158805169188,140.805476550794,141.59193420410156,232400
2024-06-14,140.8734351702916,141.15501557544053,139.50440860403918,140.54331970214844,141500
2024-06-17,140.65981624752195,142.4172120684738,140.3685466316063,142.077392578125,303800
2024-06-18,142.22303735719075,143.39787921333664,142.2133333077604,142.42694091796875,219900
2024-06-20,142.3977978909361,143.24250937170754,141.436563753432,141.57249450683594,199900
2024-06-21,141.63076047927734,142.86385622851674,141.0870374193948,142.58229064941406,444100
2024-06-24,142.9415237902204,143.92216604419272,142.4075048141597,142.4560546875,182900
2024-06-25,142.52400422223266,142.53372308553023,140.30056238212384,140.6501007080078,194500
2024-06-26,140.05785425717647,140.5821544372045,138.80535032884424,139.53355407714844,192400
2024-06-27,139.6888885498047,139.69860741462887,138.135396158235,139.6888885498047,377300
2024-06-28,139.60149156021046,140.12580647860236,136.0187272741163,136.71780395507812,435100
2024-07-01,137.27127014880173,137.36835509564582,134.36815911737452,134.5137939453125,306400
2024-07-02,134.4555328904598,136.41683242305885,133.75645612270853,136.31973266601562,259400
2024-07-03,136.78579030057608,137.2906675416146,136.4848018027494,137.11590576171875,143300
2024-07-05,136.89261727770193,137.3295366167457,135.66922534996536,136.8052215576172,207000
2024-07-08,137.53342224222834,138.3587258312191,137.38778740433332,137.39749145507812,249300
2024-07-09,136.766360792669,137.16444902591755,135.68861875591176,135.97018432617188,238400
2024-07-10,136.65955303485114,137.51398340041877,136.48479126844396,137.18385314941406,142000
2024-07-11,137.09648258623827,139.13545890652216,136.65956332198957,137.9606170654297,244500
2024-07-12,139.2422698494713,141.2618233593471,139.2422698494713,140.38796997070312,263900
2024-07-15,140.5530072875592,141.4559875097571,138.98009215801966,139.26165771484375,319900
2024-07-16,139.66945266519244,141.07730995774932,139.66945266519244,140.3588104248047,178800
2024-07-17,140.14520872276645,141.5336579783451,140.14520872276645,140.6501007080078,242300
2024-07-18,140.40737409059614,142.97065035321154,140.39767004209162,142.02883911132812,434200
2024-07-19,142.32983440463798,142.32983440463798,140.45593069491323,141.69873046875,251200
2024-07-22,141.74726125406514,143.2716263961412,141.02876171284905,142.91238403320312,235700
2024-07-23,143.572641002004,144.19404091845544,141.43657971516106,141.7958221435547,234500
2024-07-24,141.82498394212112,142.36870709384863,139.71803450615988,139.95106506347656,250600
2024-07-25,139.1134168154453,140.30167233708127,137.54531009340042,137.80828857421875,558100
2024-07-26,139.40562054037346,147.35327797180082,138.64591810105864,142.84376525878906,562800
2024-07-29,142.76586110666832,144.48980830931347,141.39254698148082,143.95411682128906,390900
2024-07-30,143.54504923709058,144.05150768530154,141.62630915801532,141.95745849609375,411000
2024-07-31,142.687920277237,144.9767768202367,141.62628675803276,143.15542602539062,280600
2024-08-01,143.05804117385702,145.64881403519908,141.64575972559882,143.20413208007812,335300
2024-08-02,142.76584278576115,143.17491218000953,140.00948044813856,141.8990020751953,213500
2024-08-05,139.69780574748174,139.69780574748174,135.85059153457982,137.0193634033203,448500
2024-08-06,137.6524373781129,142.2885715129985,137.43816083481994,141.15875244140625,476000
2024-08-07,142.21068163315522,143.42815549610452,139.7367812828085,139.8634033203125,353600
2024-08-08,140.70101663202263,142.356778003838,140.70101663202263,141.7723846435547,268600
2024-08-09,141.62628524099554,141.62628524099554,139.73676366603377,140.2042694091797,263200
2024-08-12,140.22376060481798,140.42828787630694,139.05498875394557,139.5614471435547,221100
2024-08-13,139.77571975776996,141.5191504756012,139.37639966606926,140.61334228515625,212000
2024-08-14,140.37961977723546,141.04191846622177,139.7562737151191,140.1555938720703,115700
2024-08-15,141.22695417806543,143.5060614579835,141.22695417806543,143.1846466064453,277500
2024-08-16,142.30806341467064,143.01906387906809,141.8210739450238,142.90219116210938,250600
2024-08-19,142.51262572122243,143.88592492526362,142.12302517326572,143.1457061767578,191200
2024-08-20,143.15544136166255,144.45083532458932,143.15544136166255,144.25604248046875,387200
2024-08-21,144.3144557805946,145.67803519496948,143.62293906523604,145.44427490234375,267300
2024-08-22,145.6780688711514,146.48645848882754,144.80147871746917,145.1131591796875,200400
2024-08-23,145.7657034384913,146.6130604286141,145.5514268655365,146.52540588378906,221400
2024-08-26,146.75914391028522,148.69736740875544,146.23320180620857,146.252685546875,235500
2024-08-27,146.10658758715397,147.59677430031587,145.94101293699603,147.265625,208300
2024-08-28,147.00264345528416,148.01558993867803,147.00264345528416,147.59677124023438,249000
2024-08-29,148.5805139173331,148.93114698600922,147.27538549682706,148.31753540039062,187100
2024-08-30,148.2395824635224,149.4473216241324,147.69415666896893,149.20382690429688,178500
2024-09-03,148.15196236389943,148.4149408837286,145.8338873365541,146.1358184814453,362400
2024-09-04,145.70725993860023,146.97342071092024,145.70725993860023,146.80784606933594,175800
2024-09-05,147.14874398418533,147.8110425475091,146.0481429967178,146.79811096191406,200600
2024-09-06,146.46697415286368,149.13566723576417,146.46697415286368,148.41493225097656,319100
2024-09-09,148.599998351621,149.07723859888472,147.49939721337483,147.95716857910156,241500
2024-09-10,147.9181836882304,148.8142425709734,147.4993798583381,147.5675506591797,158100
2024-09-11,146.86629136229539,146.95396076989897,144.76250795288001,146.9149932861328,178000
2024-09-12,146.96369468322857,148.05454643692235,146.06763576244578,148.005859375,200400
2024-09-13,148.229880848657,149.02853597846607,147.94741858852652,148.31753540039062,138600
2024-09-16,149.0577507849576,149.18437282019818,148.11300475699895,149.00906372070312,182900
2024-09-17,149.99278031830573,151.52193462791402,147.91820009450953,149.0480194091797,259900
2024-09-18,149.75902346233676,151.44401803275537,148.73635728036453,149.0869903564453,214200
2024-09-19,150.98622094035395,154.67759462046783,150.98622094035395,152.81729125976562,412400
2024-09-20,152.24267408275566,152.24267408275566,150.46029050724783,151.85308837890625,663300
2024-09-23,152.10629117339244,152.8270409482074,150.7135084054571,151.90176391601562,315800
2024-09-24,152.11603410552289,152.99262412844,151.96994319924016,152.55433654785156,246200
2024-09-25,153.20692666005044,153.76208705973818,151.8141287166015,153.05108642578125,284100
2024-09-26,153.83025116800434,154.92110293146314,153.59649084937433,154.25880432128906,371600
2024-09-27,154.55097113044005,157.3463007953961,154.14190175887705,155.7294921875,354300
2024-09-30,155.14512315625234,156.2457242868971,154.7944900883672,156.02171325683594,289800
2024-10-01,156.36256380130536,156.36256380130536,154.9113447728447,155.80740356445312,192200
2024-10-02,155.70030382673775,155.9437986084722,153.84974943025287,154.6191864013672,186900
2024-10-03,153.8789526282023,156.2846820263738,152.564074990201,154.80422973632812,367000
2024-10-04,155.77820432469008,157.26839101232096,155.18407653760102,156.40155029296875,350500
2024-10-07,155.24251230852914,155.486007058675,153.89841653196711,154.56072998046875,223300
2024-10-08,154.16139329533596,154.8821430979149,153.01210522116568,154.54124450683594,205900
2024-10-09,154.2295709430776,155.88533216711275,154.00554508664416,155.54443359375,152600
2024-10-10,153.93741148142823,155.23280556674862,153.93741148142823,155.07696533203125,168500
2024-10-11,156.75218568056042,157.70668095780067,156.17754162622376,157.3463134765625,194400
2024-10-14,160.696818031185,163.39472945404907,159.2066311881111,162.83956909179688,469700
2024-10-15,162.96617430440529,165.2452816100452,162.15776994657773,164.290771484375,397300
2024-10-16,164.31025487859057,164.79724438022347,161.6025944384509,161.71946716308594,330000
2024-10-17,162.63502251682706,163.94016577814568,162.18700046287847,163.52134704589844,238200
2024-10-18,164.69986730082573,164.69986730082573,163.414207789957,164.24209594726562,171500
2024-10-21,164.0862524476999,164.1057361900711,161.97271968352462,162.00193786621094,217900
2024-10-22,161.40779833915946,162.04087873375656,160.52147389733162,161.49545288085938,228500
2024-10-23,162.17724687078498,163.6089972685699,161.83636311905678,163.28758239746094,318100
2024-10-24,164.38140383544402,164.39116447584829,162.26216763017436,162.65281677246094,547300
2024-10-25,164.9673259462908,165.8755720020447,160.75818090850115,164.9575653076172,518900
2024-10-28,165.92442647282834,167.39910283145346,164.81110244868484,165.14315795898438,350000
2024-10-29,165.07475181943673,165.52399452591067,163.7172779631245,164.75247192382812,338100
2024-10-30,164.41068693257148,166.2173887714383,164.18605810635694,165.07476806640625,290300
2024-10-31,165.13335357792894,166.29551040666678,163.93213929101648,163.98097229003906,329900
2024-11-01,164.16653293752452,166.98890749293048,163.69775401702358,165.4458770751953,316300
2024-11-04,165.66072177477935,166.5787284860389,164.24463934900223,164.32276916503906,191800
2024-11-05,163.81495853194275,166.37364684373878,163.81495853194275,166.32481384277344,206200
2024-11-06,171.05154898002016,171.05154898002016,168.1119872286225,169.10812377929688,264100
2024-11-07,170.12379617937486,171.35432228905614,169.47923630304092,170.6218719482422,412300
2024-11-08,170.61209897781401,173.6786238548333,170.40702122427004,171.6472930908203,309200
2024-11-11,172.19417237187216,173.86415054303177,171.7839871315732,172.02813720703125,189100
2024-11-12,172.51645146428592,173.09265701480297,170.85623379576612,171.58868408203125,179800
2024-11-13,171.39337158203125,172.26254534897026,170.95390437883552,171.39337158203125,168400
2024-11-14,171.05154146977196,171.67656508355398,169.84056660029717,170.026123046875,198200
2024-11-15,168.92259010604147,169.6940979462343,162.28170370883174,162.59422302246094,620500
2024-11-18,162.49655239968402,163.8930988274997,160.4847578059515,162.78953552246094,384400
2024-11-19,162.52584959099735,163.74660018722383,162.31099629392224,162.99461364746094,287600
2024-11-20,163.0922846123704,164.98689197957114,161.77386796768175,164.78179931640625,221800
2024-11-21,164.74271987680694,166.24667789967594,163.81495249958823,165.90487670898438,205100
2024-11-22,166.19783911675128,168.04362806955587,166.19783911675128,167.49671936035156,241600
2024-11-25,168.0241100492806,169.94801412387145,167.7213662946961,168.4635772705078,270100
2024-11-26,168.81513216055757,168.81513216055757,167.1549145944536,168.01431274414062,140300
2024-11-27,168.6296004490124,169.81129356804752,167.50651587532045,167.7115936279297,167200
2024-11-29,168.55145899910121,169.43040829774364,168.06315880043525,168.91281127929688,117300
2024-12-02,168.93235208368242,169.05931491856694,166.84242758790214,168.71749877929688,170900
2024-12-03,169.39132382716835,169.39132382716835,167.0865464581629,168.3658905029297,160100
2024-12-04,167.86783536473908,168.84443572520686,167.02795845866723,168.55145263671875,173400
2024-12-05,167.98502374389864,168.40496965056505,166.5396593733903,167.09632873535156,245000
2024-12-06,167.58463897320985,168.61005749857284,166.85218865409922,167.14515686035156,209200
2024-12-09,167.5455809247015,169.41089147314173,166.24670045963933,166.79359436035156,301700
2024-12-10,166.72521015388972,167.3599944100707,164.25441250187913,166.9107666015625,287000
2024-12-11,167.85808411107303,170.02613822467129,167.73112128855698,168.27801513671875,418600
2024-12-12,167.6529998247031,168.5612460049008,166.7838260080303,167.6237030029297,178300
2024-12-13,166.91076951474722,166.99865996989303,165.8462787089003,166.21737670898438,153200
2024-12-16,166.158796503823,166.9303042864774,163.66846242787886,163.70753479003906,236100
2024-12-17,162.9945718969297,163.00434743630956,159.02957736028515,159.2737274169922,511900
2024-12-18,159.85971564038562,160.57262973216018,154.21496674015316,154.50794982910156,468600
2024-12-19,154.80091960788565,157.78932926379758,154.52747269585277,155.15249633789062,404700
2024-12-20,155.00602554523715,156.04121964416362,153.78527497542004,154.47865295410156,730200
2024-12-23,153.49229809203675,155.1818127767919,153.28722033295332,154.8107147216797,194900
2024-12-24,155.0645922806042,155.68961586782322,154.22471543824068,155.6212615966797,100500
2024-12-26,154.71303442348506,155.89472747069453,154.71303442348506,155.1329803466797,164500
2024-12-27,154.12707581536193,155.84588708263334,153.92198318319998,154.4493408203125,145000
2024-12-30,153.32624728896786,153.80478680118333,151.37304668656063,153.06256103515625,221700
2024-12-31,153.59970058644706,154.54700411025723,152.52543424962974,153.42391967773438,317100
2025-01-02,153.96106053123728,154.4103033111957,149.85934147374135,150.552734375,239400
2025-01-03,150.43551553521377,152.07621191768425,149.29289488218893,151.86135864257812,250700
2025-01-06,150.39648145810642,151.02150520056398,147.89638648827628,149.3417510986328,369000
2025-01-07,152.27152292122494,152.408246372483,149.02921754778856,149.83978271484375,361200
2025-01-08,149.3124422881475,150.6503801368408,148.5311589473614,150.54295349121094,228600
2025-01-10,149.1463999140004,150.68943018558076,149.0096764672395,149.85931396484375,350800
2025-01-13,149.3514738966303,151.08006056736804,149.3514738966303,150.2890167236328,349300
2025-01-14,151.18748931990888,151.81251291278505,149.88860913904762,150.99217224121094,196900
2025-01-15,152.46686153360938,153.2481448947014,150.56249358589434,151.9199676513672,206100
2025-01-16,152.24223989964935,153.49228725350105,151.67580986403843,152.7500762939453,346300
2025-01-17,153.29697420180517,154.25403847264764,152.03715127326387,152.43756103515625,231900
2025-01-21,153.0528143054371,156.50997312910235,153.0528143054371,156.0900421142578,270900
2025-01-22,155.6115107453754,156.98852094407073,154.6349103040437,155.34783935546875,280000
2025-01-23,154.7521036088612,156.070505187951,154.03917459835165,155.88494873046875,149800
2025-01-24,155.9142727810344,156.71509238966897,153.5411405831508,154.5958709716797,329600
2025-01-27,154.54701307242723,155.201333551255,152.98444647403235,154.75210571289062,317000
2025-01-28,153.88292658532947,156.59787440646915,153.88292658532947,154.71302795410156,204300
2025-01-29,155.06462155953,155.10369392333624,152.95516096621085,153.43370056152344,265800
2025-01-30,154.12706586283983,154.96692781170574,152.9160761312112,154.4298095703125,274200
2025-01-31,154.205198107046,155.66033807623802,153.0918742405619,153.47274780273438,834100
2025-02-03,150.96288932286944,153.0821103704106,150.53318276913035,152.3301239013672,364600
2025-02-04,152.4375754807049,154.75212890535818,152.4375754807049,154.00990295410156,302400
2025-02-05,155.01864663986422,156.3702165851502,154.52894911700784,155.05783081054688,262600
2025-02-06,156.5465285972017,156.5465285972017,152.16863076212493,153.22637939453125,446600
2025-02-07,154.37224962460155,154.64647905482116,139.11327229734582,140.2297821044922,1221500
2025-02-10,141.2875312819042,141.62053697254157,137.99676315893876,140.32772827148438,621900
2025-02-11,139.33854663703144,140.1220657147679,137.3699528993658,139.35812377929688,377300
2025-02-12,138.06531924654766,140.53339891858562,137.0467400415367,138.7802734375,423500
2025-02-13,139.80865498326042,140.8174307728779,138.54524183950096,139.8282470703125,665900
2025-02-14,140.72928446288225,142.3158997444021,139.7792700193002,141.80661010742188,512800
2025-02-18,141.80661410840983,144.2551019301506,140.93495304164546,143.87313842773438,489600
2025-02-19,143.12880426353559,144.45099367199094,142.6097260381441,144.01025390625,331000
2025-02-20,143.94171731007287,144.38244217212826,142.91334933568692,143.65768432617188,283100
2025-02-21,144.00046152927248,144.35304436591701,142.20816668836144,143.32467651367188,451900
2025-02-24,143.1679734070286,144.25510260272546,141.38548203557013,142.60972595214844,353300
2025-02-25,142.8741632870377,145.27367831527678,142.7174564829414,144.6664581298828,336700
2025-02-26,143.62828832707837,146.10615678438293,143.59890766903789,143.61849975585938,735600
2025-02-27,143.21693102979327,144.14735331926948,142.3648621360305,142.62930297851562,262800
2025-02-28,143.14840249829248,143.92211811173567,141.64992907469428,143.7262420654297,348700
2025-03-03,143.94169395000412,145.7731579400057,142.68806946190705,143.56951904296875,394100
2025-03-04,142.54115535917794,144.90150112160728,142.14940329945776,142.93292236328125,490100
2025-03-05,143.04065503791688,145.78296426258473,143.04065503791688,145.38140869140625,445100
2025-03-06,144.5195432997619,148.37836251128888,144.02984573371802,148.0355682373047,471700
2025-03-07,147.40875736971992,150.20003950079644,146.10616003817648,149.63198852539062,480200
2025-03-10,148.93663737676746,150.8268629666157,147.1443423416951,147.46754455566406,391100
2025-03-11,147.24225796213827,147.45772608292995,144.23552273099082,144.84274291992188,304000
2025-03-12,145.18552675241813,145.18552675241813,142.56074026251753,143.02105712890625,299700
2025-03-13,143.39324790721705,144.16696350239528,140.79784178568258,141.77723693847656,238400
2025-03-14,142.23754924682325,143.86334873443155,141.5617642221919,143.63809204101562,223600
2025-03-17,143.49116498279625,144.9504690034165,142.85456417100727,144.79376220703125,225200
2025-03-18,144.35305965504074,144.49017438690367,142.77623276642447,143.2855224609375,219900
2025-03-19,143.32466483055046,144.42159742424096,142.47259593827573,143.95147705078125,279600
2025-03-20,143.1190055816075,144.38241863949617,140.76844845978337,142.20816040039062,332800
2025-03-21,141.0329025919921,142.4628260965788,139.42669513246977,141.8360137939453,601900
2025-03-24,142.74682361184875,145.12674632792306,141.9241353848884,144.940673828125,463800
2025-03-25,145.43038233248038,146.15512513486658,142.9231183481365,144.1767578125,325200
2025-03-26,144.02005068183723,145.63604659931275,143.28550436582418,145.49893188476562,630400
2025-03-27,145.22472970521724,146.80155669057183,144.0004856154819,146.27268981933594,312700
2025-03-28,146.2138845778836,146.90926165859608,142.7566211490686,143.9025115966797,239800
2025-03-31,143.55973295769965,146.01800923430915,143.08962750262015,145.32264709472656,372500
2025-04-01,145.81233341659282,146.93863169683007,144.3432409061711,146.02780151367188,240000
2025-04-02,144.95046129125058,148.01597245076098,144.95046129125058,147.42832946777344,247600
2025-04-03,143.73601082079833,146.95822887417515,143.4422042640377,145.60665893554688,352900
2025-04-04,142.2277708498692,144.91131905351403,137.15449598879215,137.29161071777344,531600
2025-04-07,133.5307294902565,139.19163219073434,128.15385974857273,131.87554931640625,629900
2025-04-08,134.54929557388985,136.4395208305467,128.5749798434124,130.90594482421875,473800
2025-04-09,130.43584131939255,141.44424838924863,128.6141806532637,140.78805541992188,491800
2025-04-10,137.11532993446937,140.4158870228316,134.7354067381973,137.8596649169922,309000
2025-04-11,137.967394489513,141.72828334567205,136.8606880961678,141.14064025878906,203000
2025-04-14,142.79581425798335,143.38344237476502,140.82722046414764,142.7860107421875,249300
2025-04-15,143.08963340422312,143.5205547049289,140.80764097500608,140.97413635253906,250700
2025-04-16,141.09166473999363,142.81540979066028,139.63237551205373,142.01229858398438,307700
2025-04-17,142.40403652449308,142.7566193457953,137.81068622127157,140.86639404296875,390600
2025-04-21,140.347331860725,141.08187824351555,138.19266546008294,139.6421661376953,291600
2025-04-22,141.52260661323547,143.79481065396374,140.63135339324026,143.01129150390625,217800
2025-04-23,144.823151790697,146.24328667195422,144.1865509396658,144.99945068359375,537000
2025-04-24,144.88192409202932,148.86806971088194,142.4628317080614,148.33920288085938,424500
2025-04-25,147.74175781185858,149.84745131334506,144.52934305768525,145.98863220214844,220500
2025-04-28,146.71339348881767,147.91804531450325,145.22470870652703,146.61544799804688,235200
2025-04-29,146.67418232302288,148.84844030743994,145.93963611056793,147.20306396484375,359900
2025-04-30,145.99844818091182,146.8994899625974,144.17677252930838,146.8603057861328,556200
2025-05-01,145.82883124627438,147.8721067076984,144.36514960993844,145.66183471679688,445300
2025-05-02,150.28867188742916,150.29848992197137,145.18047592473235,149.31614685058594,431600
2025-05-05,148.7562082163406,150.51461075676426,148.21593150363898,148.80532836914062,267600
2025-05-06,147.59706562017445,149.35545335071032,146.7817189664437,148.25523376464844,312000
2025-05-07,149.19825714465503,150.4458219414754,147.96049539213504,148.71690368652344,318400
2025-05-08,149.1098443499113,151.84077180787722,148.5695676661293,150.65213012695312,302500
2025-05-09,151.19244816342078,151.57556141857108,150.239574043545,150.6128692626953,231600
2025-05-12,153.0392239180569,153.82510139061208,150.98613045039815,152.7740020751953,352500
2025-05-13,153.55003919391905,153.55003919391905,150.49495171985274,150.92718505859375,339400
2025-05-14,150.90757524725078,150.90757524725078,148.30437145835984,149.78770446777344,350100
2025-05-15,149.65999740079963,152.73472152439172,149.65999740079963,152.21408081054688,278100
2025-05-16,152.4400115498671,154.3752288653149,151.86043265563208,154.23770141601562,278600
2025-05-19,153.5991717253283,155.5442069170815,153.5500515711728,155.28880310058594,185400
2025-05-20,157.43028415795405,157.43028415795405,155.1217870960868,155.7308349609375,388100
2025-05-21,154.090355864569,154.86640040184534,153.0785435617234,153.68759155273438,319800
2025-05-22,153.5991907742584,154.48329370123562,152.81331317840733,153.88406372070312,278900
2025-05-23,152.38107111925262,153.422352504288,151.53625537470865,153.1865997314453,260500
2025-05-27,154.25733338201647,155.642440728808,153.9233403306864,155.3673858642578,352800
2025-05-28,155.36736354570314,156.035349552407,154.48324590291043,154.6207733154297,364400
2025-05-29,155.0431913125347,155.86835580221654,154.05103031822898,155.53436279296875,232100
2025-05-30,155.44597065814978,155.9764293133438,153.77597547059216,155.60313415527344,335100
2025-06-02,154.75833131600515,156.2613301068848,152.51859016122646,154.13946533203125,349600
2025-06-03,153.4223262867034,154.66008809008275,153.24551173728634,153.50091552734375,397800
2025-06-04,153.72689030243944,153.75635939881812,147.63635056847724,147.75424194335938,831900
2025-06-05,148.90356481639972,150.6324832288513,146.41823804065308,149.79750061035156,482400
2025-06-06,151.64429332994897,151.75235166609104,149.52244371290558,150.60301208496094,264700
2025-06-09,150.0136191980335,150.4753066580511,148.6874500367206,148.9232177734375,388400
2025-06-10,149.47334506320036,150.2985097546009,148.1962959040132,149.83680725097656,323500
2025-06-11,150.29849644880608,150.8780752886444,148.92322208489034,149.23756408691406,380800
2025-06-12,148.73658814675593,151.8899014382214,148.73658814675593,151.6246795654297,337200
2025-06-13,150.29848970697998,151.00577791651503,148.0685667411024,148.49098205566406,361200
2025-06-16,148.5695758002576,150.20025395390124,148.4516844355203,149.01162719726562,346200
2025-06-17,147.9998296074305,148.58922653181065,146.49684571567806,146.81118774414062,379700
2025-06-18,146.4869866848808,148.0685595503163,146.4869866848808,147.05674743652344,383200
2025-06-20,147.6363309167007,148.10786637472864,146.35929693863002,147.6461639404297,570500
2025-06-23,146.85047583401547,151.2218996436103,146.85047583401547,151.0745391845703,356500
2025-06-24,151.84078941040858,151.84078941040858,150.4753180284472,151.15313720703125,246600
2025-06-25,151.14331042765082,151.80147850793904,150.0725600428252,151.21206665039062,264700
2025-06-26,151.80147000378724,152.83293320202972,150.41636270870066,151.75234985351562,658200
2025-06-27,151.92918872409527,153.3535832332286,151.50677339306424,153.06871032714844,643100
2025-06-30,153.27499173184543,153.73669418509692,151.8800663373244,153.6679229736328,315500
2025-07-01,153.66793021902077,156.9784367941011,153.20624273336693,156.20237731933594,338300
2025-07-02,156.2122087454969,157.69554147577566,155.84873159459067,157.4892578125,293500
2025-07-03,157.76431481113727,158.51089020387988,156.99808835850575,158.196533203125,235100
2025-07-07,158.1081326731942,159.50305819756994,157.71520139482857,158.1179656982422,313900
2025-07-08,158.05899691367227,159.70934109650693,157.02754866243734,157.22401428222656,342700
2025-07-09,157.10613360189868,157.18472285303153,155.30845881868973,156.90966796875,252800
2025-07-10,156.37917833888986,157.52851780438186,155.53436279296875,155.53436279296875,361600
2025-07-11,155.7603190354981,155.7603190354981,153.86440405350666,155.11196899414062,292000
2025-07-14,154.3654022940558,156.13362296539574,153.92335087356255,154.77798461914062,276600
2025-07-15,154.95479334988428,155.21019713887813,151.34959626569866,151.43800354003906,254200
2025-07-16,151.2022489800424,152.8624112264187,150.83878682765217,152.2435302734375,261900
2025-07-17,152.00776275022704,153.64827377805926,151.78181306560424,153.2749786376953,397700
2025-07-18,154.08052265083427,154.43416676966828,152.18459265589,153.6188201904297,243100
2025-07-21,153.65812006565358,153.90370586328876,152.49896229571195,152.7052459716797,205900
2025-07-22,153.3535904509508,156.54620570312537,152.48912367837994,156.35955810546875,449900
2025-07-23,157.24366585052525,158.99223535423732,156.3300789809644,158.8055877685547,450500
2025-07-24,158.55930509041656,161.82977982229215,157.4067422902807,159.40647888183594,431900
2025-07-25,159.63305506440543,160.65753702914088,158.3819926877325,158.5888671875,296300
2025-07-28,158.79572064833397,159.5640858506177,155.80106845369062,156.3330078125,308500
2025-07-29,156.67779828906407,157.21959813532774,154.8750906357904,156.45123291015625,388200
2025-07-30,156.43152305866946,156.55957390550213,152.60938790987095,154.4514923095703,580700
2025-07-31,153.456563501654,155.0031544025075,152.86550639902828,154.79627990722656,679700
2025-08-01,154.62884976255725,155.76169191114917,138.98568947614942,139.2418212890625,1012300
2025-08-04,140.98538123418317,140.98538123418317,135.03547356824112,137.05490112304688,839000
2025-08-05,137.26178223450404,138.96599062771253,135.63639750032982,138.128662109375,540800
2025-08-06,138.21729882019278,138.6605841437307,135.49846914211423,136.47369384765625,515300
2025-08-07,137.71489643746784,139.37969261856065,136.8381713223084,138.3946075439453,564000
2025-08-08,138.59163887027924,139.93135534040795,138.48327889728324,138.65074157714844,428700
2025-08-11,139.222090228796,139.5077583171329,137.12385398637957,137.7838592529297,349500
2025-08-12,138.12864188918144,138.9856611656125,137.15340217271373,137.39967346191406,286100
2025-08-13,137.60654859738395,139.33044762978915,137.17310872138614,139.32058715820312,729900
2025-08-14,138.09910131689176,138.09910131689176,134.40503169053025,136.2766876220703,875800
2025-08-15,136.29640019144338,136.87759690021682,135.8137029921251,136.65103149414062,770500
2025-08-18,136.81848979115895,137.4883555774846,135.30146511966976,135.83340454101562,529500
2025-08-19,136.20772160139649,138.4241630864148,136.20772160139649,137.50802612304688,333100
2025-08-20,137.82326302031893,139.1432734762502,137.18294867232404,139.07431030273438,519200
2025-08-21,138.53254347475354,139.78359091939785,138.14836082862038,138.54238891601562,270400
2025-08-22,139.15312448451428,141.19225798353852,139.08417633944555,139.32058715820312,356500
2025-08-25,138.8674434036544,139.4978972466762,136.88742782585285,137.4784698486328,245800
2025-08-26,136.9957973337368,138.06953652648775,135.95159446141804,137.62625122070312,442900
2025-08-27,137.01548945470773,138.47342629437426,136.95638675089546,137.3602752685547,729100
2025-08-28,138.07938928608468,138.07938928608468,135.35069910089788,136.8184814453125,320800
2025-08-29,137.09431078109077,137.78386744151146,136.28654870208595,137.1928253173828,370700
2025-09-02,135.37040364310914,136.46384879424832,134.13904716800675,134.37547302246094,310600
2025-09-03,134.0504057475134,134.1489052560839,132.4348665011149,133.20323181152344,382300
2025-09-04,134.3163671782823,136.41458834161003,133.0258929963137,136.3948974609375,401800
2025-09-05,136.94654859153968,138.7197049562119,135.5772807659998,136.55250549316406,440800
2025-09-08,136.52295752982062,137.91193130257207,135.62652636886406,136.23728942871094,616100
2025-09-09,136.1978803964661,137.39968559639797,133.08502244977814,135.0059356689453,637100
2025-09-10,134.09965957050477,135.40982475360394,132.83875165602893,134.21786499023438,685100
2025-09-11,134.71038997723537,136.21756900629404,133.84351026282553,135.05517578125,477500
2025-09-12,134.58232620679007,135.00592063066784,133.20321303157323,133.2130584716797,261300
2025-09-15,133.9420357302436,134.13904976383114,132.62202517087903,132.8387451171875,298000
2025-09-16,132.77962562814162,133.40023410540573,132.0999294759084,133.19337463378906,474800
2025-09-17,133.4002434882413,135.02564317844585,132.18859283278562,132.6417236328125,377400
2025-09-18,132.88797027728828,133.48887277280454,132.0703628945154,132.4939422607422,254800
2025-09-19,132.65156489801703,133.08500475264486,131.35124533413355,132.43484497070312,877200
2025-09-22,132.11962230163485,132.92739938115005,130.691251766929,130.74050903320312,402100
2025-09-23,131.0261738005905,131.95215627068484,130.00169183165633,130.0509490966797,319700
2025-09-24,130.0312388605038,131.32169799268698,129.38107905871175,129.5386962890625,353300
2025-09-25,129.53870141670419,130.54349251095573,128.32705085173455,128.8688507080078,388700
2025-09-26,129.37125159771273,130.4548363867495,129.00677485417953,130.31692504882812,274400
2025-09-29,130.4252615354418,130.70108416159653,129.40077964275358,130.29721069335938,540600
2025-09-30,129.74557555443596,131.76498814664785,129.74557555443596,131.66648864746094,310400
2025-10-01,131.3413962300209,132.3560326654084,130.33660523425266,132.13931274414062,310100
2025-10-02,131.66650104495739,132.38560908468045,130.9769443608936,131.1936492919922,398500
2025-10-03,130.49423360821496,131.58767874762543,130.45482178395852,131.23304748535156,402000
2025-10-06,130.90797079558112,131.21334480064905,129.45004891757588,129.9130401611328,447100
2025-10-07,130.13960666531722,130.5336347337186,127.8739076939909,128.64227294921875,438800
2025-10-08,129.2234697553329,130.04109227782575,128.31719317203184,129.64706420898438,361300
2025-10-09,129.73571125193516,130.8587077217144,128.258083526899,128.66197204589844,554200
2025-10-10,128.98704858156654,130.04108184834632,127.95270619480443,128.97718811035156,426000
2025-10-13,129.0363213593292,130.37603789072034,128.21869880410003,128.27780151367188,311400
2025-10-14,128.10046262811323,129.10525366111025,127.11537750629039,127.86405181884766,337400
2025-10-15,127.86406447402499,128.44526114593418,125.95299674355027,126.18942260742188,438300
2025-10-16,126.5243419047704,127.56852978216413,125.94313774513942,127.23360443115234,352700
2025-10-17,127.23361106421747,128.15959357922404,126.92823704995098,127.41091918945312,339700
2025-10-20,127.67688307805489,128.1497197271898,126.11060134384137,128.06106567382812,240500
2025-10-21,128.66197064438,129.80467301345007,127.19418837559832,128.62257385253906,311600
2025-10-22,128.70137488096933,130.13960588126338,128.04136960320932,128.12017822265625,357500
2025-10-23,128.27838836608,130.0482160538345,128.19928781482736,129.29678344726562,378600
2025-10-24,129.27699821696652,129.41542040316887,127.09188897025071,127.42807006835938,489300
2025-10-27,127.68513804202082,128.43657062662018,127.00290900843953,127.32919311523438,521700
2025-10-28,127.29953156353623,127.65547648827675,126.03395296154486,126.6568603515625,413500
2025-10-29,125.84608767724626,126.06361040803851,122.02957306455488,122.9095458984375,651100
2025-10-30,122.6425973459498,124.10591981246533,121.65386309537952,122.95899200439453,702600
2025-10-31,113.99117408852003,116.76951495369767,102.06704129042897,114.70306396484375,2758200
2025-11-03,114.78215353846566,114.78215353846566,107.07003104374891,111.84561920166016,1661000
2025-11-04,113.07164922422088,114.69317278774453,111.26226373964292,112.8936767578125,1029100
2025-11-05,113.04197713771558,114.73271162837109,111.49954673475034,114.26800537109375,896900
2025-11-06,113.72420198995826,115.64234871180304,112.517952627641,114.84147644042969,880300
2025-11-07,114.9205721317626,115.60279355716192,113.39792065465342,114.91068267822266,697200
2025-11-10,114.68328006091402,115.45449154553131,112.71570107535919,115.06888580322266,514000
2025-11-11,115.64234460825183,118.16361969350976,115.64234460825183,116.93758392333984,484800
2025-11-12,117.0067994446968,118.32181771681981,116.58165098825971,116.8288345336914,547500
2025-11-13,116.96725913412712,120.50692184487997,116.96725913412712,118.8458480834961,679400
2025-11-14,118.42069332802943,119.33033453666947,117.05624283023447,117.27376556396484,521200
2025-11-17,117.15511423578639,118.1438484441411,116.24548057452645,117.99553680419922,820200
2025-11-18,118.31193671929118,118.75686408712447,116.72995598156568,117.96587371826172,817400
2025-11-19,118.16362983624596,118.16362983624596,116.38390520642318,116.67063903808594,598900
2025-11-20,116.67064242743679,118.26250518606629,116.04774256062495,117.24411010742188,507400
2025-11-21,116.79916971414367,120.86286792776397,116.79916971414367,120.1509780883789,509100
2025-11-24,119.48852930748254,121.02107037008182,119.08315219875638,120.10154724121094,740000
2025-11-25,121.0309595133857,122.68214385066395,121.0309595133857,122.04935455322266,543600
2025-11-26,121.63407548431789,123.11717675407199,121.63407548431789,122.41517639160156,538000
2025-11-28,122.23721179455744,124.65961521692697,122.23721179455744,123.34459686279297,315700
2025-12-01,123.47312464549341,123.55222519221778,121.64396787729149,121.89115142822266,536800
2025-12-02,122.3756388635315,122.4646288715747,119.43910438009662,120.23008728027344,325400
2025-12-03,120.08176229804191,122.86011045381893,120.04221956935034,120.68489074707031,543100
2025-12-04,120.82331241795377,122.68213748322397,120.55635751147511,120.64533996582031,708000
2025-12-05,120.61568357957054,122.11856379579517,119.26112254625717,120.53659057617188,537000
2025-12-08,119.557730555852,120.72443714432647,117.95598607474565,118.7173080444336,496600
2025-12-09,118.25260671307173,118.49979025868578,114.06037589162156,114.41632080078125,640300
2025-12-10,114.86124902547321,116.47289058274676,113.83296456280685,115.84998321533203,734700
2025-12-11,116.63107937914778,117.33307972013586,115.84009658555017,116.6805191040039,389700
2025-12-12,117.18477675810965,120.26963024864754,116.32458281214376,120.10154724121094,656400
2025-12-15,120.11143594513233,121.08039125301917,119.12270172858626,120.95185852050781,588600
2025-12-16,121.2880193092629,122.45472593627359,118.17350515259987,121.44622039794922,644800
2025-12-17,120.73434038745187,123.19628656831932,118.72721105831677,122.23721313476562,567300
2025-12-18,122.2767604710972,122.72169540087228,120.65523693661119,121.23859405517578,457100
2025-12-19,121.95047437935206,122.92932668285609,119.89391294648267,120.02244567871094,1300400
2025-12-22,120.02244150583525,122.30641504771651,119.70604686997531,121.35723114013672,527800
2025-12-23,121.48577032424926,121.6439638690421,119.95322934159698,120.81343078613281,311700
2025-12-24,121.1496037277725,121.7823930301015,120.38828169146663,121.36712646484375,198000
2025-12-26,120.99141254975284,122.08890816765887,120.34873378036154,121.86149597167969,306000
2025-12-29,121.9010457403063,122.90955134918035,120.9419723175224,121.82194519042969,400200
2025-12-30,121.41656032047763,122.89966159046664,121.0408365042768,121.35723114013672,289800
2025-12-31,120.15097596397585,121.94058998507745,119.98289296138277,120.58602142333984,314300
2026-01-02,120.36850209754444,121.61430932967109,119.4193181494529,121.15949249267578,295100
2026-01-05,120.38828287586783,123.17651312401219,120.38828287586783,121.61431121826172,435700
2026-01-06,120.84309994356978,121.4659997987374,118.75687009500949,119.20179748535156,777200
2026-01-07,119.31055741898699,120.57613602320409,116.28503309681528,119.0831527709961,478500
2026-01-08,118.56900865138992,121.98014631699301,118.17351344536358,121.06062316894531,330000
2026-01-09,120.70467850674399,123.5621198728979,120.09166055886544,122.4547348022461,429100
2026-01-12,122.60304703866626,123.88840458144911,121.59454142246342,123.7203140258789,477300
2026-01-13,123.64122184064439,124.0268275973534,121.15949674370285,122.10868072509766,351900
2026-01-14,122.71180688445504,125.72744932780128,122.71180688445504,125.42093658447266,611700
2026-01-15,125.70766789113175,125.78676843900955,123.11718152395939,123.7005386352539,381000
2026-01-16,122.60303809087354,123.78951608727894,121.85159800331378,123.30503845214844,363400
2026-01-20,123.49289879622381,124.11579860493296,122.0493478196131,122.42506408691406,275100
2026-01-21,122.90955081825824,124.20479780070094,122.50417370291805,123.60166931152344,421000
2026-01-22,123.64121667891544,124.98589581561515,122.66236437418617,123.0677490234375,369700
2026-01-23,122.93921055756546,124.85735737798285,122.4745118058816,124.58051300048828,429500
2026-01-26,124.99578580485898,125.55936404244027,123.69065685764738,124.92657470703125,315400
2026-01-27,123.54233481410213,124.87713201390274,122.77112334791536,123.33470153808594,303100
2026-01-28,122.80078648003611,123.6609879626866,121.8614919932062,122.3064193725586,347800
2026-01-29,122.88978028418853,123.86862507511535,121.20892754069328,122.4547348022461,386000
2026-01-30,121.52532437660433,123.60166469190948,121.27814082612888,123.5423355102539,512700
2026-02-02,122.80078342815366,124.49152553193812,122.80078342815366,123.42369079589844,489100
2026-02-03,122.51405462375108,126.48876266797768,122.29653189940339,123.22593688964844,658700
2026-02-04,124.77433039015442,129.44927260782487,123.77184577350829,128.26812744140625,589400
2026-02-05,126.71975064755804,128.1192596554473,121.05225107397254,123.05722045898438,2144200
2026-02-06,126.58078326238557,134.97782150042084,126.58078326238557,133.31031799316406,1045700
2026-02-09,132.5857587104382,138.531180271334,132.2582131007177,137.43936157226562,1043400
2026-02-10,136.78427392403074,139.88104683101494,136.78427392403074,139.126708984375,622100
2026-02-11,137.99519392074043,139.50388475135443,137.56840169460276,138.9678955078125,584300
2026-02-12,139.11678651599092,140.94308767923593,138.3525134196047,139.46417236328125,572700
2026-02-13,139.46418324151318,141.8661694437224,139.3649366253535,141.51878356933594,471900
2026-02-17,138.2234773285034,142.55102629654255,138.2234773285034,140.59568786621094,614700
2026-02-18,140.41703714664675,142.04482998774162,139.791721402891,140.66517639160156,582000
2026-02-19,140.5956812663536,142.25326464590432,139.98030082414553,142.09445190429688,525500
2026-02-20,142.0547550361601,144.0597244456509,140.94309602664507,143.97039794921875,664500
2026-02-23,142.42200863639354,145.15154037209857,142.06468751245615,144.63540649414062,513500
2026-02-24,144.98279666295065,145.8165408414096,142.77931908758302,143.06715393066406,429800
2026-02-25,141.35004724560304,142.59074350649368,139.38477346379526,141.61802673339844,348900
2026-02-26,142.45176871915783,142.84878541602816,139.95052112226952,140.73463439941406,331300
2026-02-27,140.47658357934912,142.9381205686862,139.9505296087492,142.64036560058594,344600
2026-03-02,141.93563886113196,142.2830398395081,140.56590547180699,141.60809326171875,335000
2026-03-03,139.5931967078321,140.26814325067423,135.90088396317486,138.71974182128906,347300
2026-03-04,138.302888395737,138.47162126788456,134.9976717766612,136.02000427246094,389000
2026-03-05,134.9877396254558,135.32520533966746,133.40957777498073,133.72718811035156,452300
2026-03-06,133.0026313554941,133.0026313554941,130.02496050425168,131.096923828125,398500
2026-03-09,129.99519404049997,132.98278521657096,126.5807954705799,132.75450134277344,545700
2026-03-10,132.3574660154593,133.1316591702968,130.42196798314936,131.14654541015625,503100
2026-03-11,130.8190202738326,132.28800044532838,129.0721101988683,131.03738403320312,563800
2026-03-12,130.29295237048808,131.8016279987067,127.68252279954663,127.90088653564453,620600
2026-03-13,129.18127925269795,129.18127925269795,126.10436183607526,127.69244384765625,660600
2026-03-16,128.5162697582332,130.43191254892886,125.06217580985977,128.0894775390625,370700
2026-03-17,129.00262050471235,130.04480827067758,127.2855013216824,128.53611755371094,276700
2026-03-18,123.45423058912087,125.63786042046195,120.51626292882625,123.29542541503906,910500
2026-03-19,122.0944332187195,123.8909588849741,120.54603921873606,123.04728698730469,518500
2026-03-20,123.33512999241371,123.33512999241371,119.41452545613383,120.15894317626953,1481500
2026-03-23,122.5907105268858,125.39964092902298,122.07457667427936,123.21601867675781,455200
2026-03-24,122.24332284607306,124.28798782763778,121.95548040949986,123.2259521484375,405000
2026-03-25,124.50634549167631,125.62793211237509,122.78921864642815,124.88351440429688,337200
2026-03-26,124.28798636131239,126.3922023143744,123.19617519683187,123.76193237304688,442100
2026-03-27,123.01751427118627,123.28550132328671,120.85373975633635,121.08202362060547,381400
2026-03-30,121.64777727824665,123.01751071469691,120.19864504103799,122.44182586669922,562000
2026-03-31,123.46415851677581,126.01502957768723,122.67010992701152,125.08202362060547,557800
2026-04-01,126.39219982096562,127.68252689973865,125.38972274230011,125.80659484863281,380200
2026-04-02,124.2085781211438,126.14406117582702,123.32520302720033,125.07210540771484,297500
2026-04-06,123.66266876079281,125.25076596450165,123.66266876079281,125.07210540771484,461100
2026-04-07,124.38723692091199,126.22346576757812,123.8711106378232,124.67507934570312,376900
2026-04-08,130.4021481364575,131.68254004802253,127.19617800807119,131.03738403320312,645200
2026-04-09,130.24332882387228,131.45424955756675,126.39220287440348,130.42198181152344,424100
2026-04-10,131.2656579543429,131.71230555728022,129.87608426848973,130.521240234375,407400
2026-04-13,129.82646170678544,131.43439923843442,126.63042687940094,131.126708984375,396300
2026-04-14,130.2532453341348,131.73216065356567,129.99518597737963,130.03488159179688,315500
2026-04-15,129.83638260646234,130.05474636457114,127.64284005257605,128.6850128173828,407100
2026-04-16,125.95547520842267,129.35994576168224,125.95547520842267,127.33512115478516,393800
2026-04-17,128.6849981610624,131.31528307681364,128.6849981610624,129.65771484375,401100
2026-04-20,129.59817078840075,131.00759986778516,128.69494031122633,129.945556640625,403600
2026-04-21,129.72718762909471,131.2656538985368,125.74703979492188,125.74703979492188,310200
2026-04-22,126.33265459801167,126.33265459801167,122.04480863207884,123.62297821044922,458900
2026-04-23,124.44679072012924,126.49146323670142,123.51379231359721,124.01007080078125,440800
2026-04-24,123.48401687155638,123.48401687155638,121.65770810014067,123.1564712524414,440900
2026-04-27,123.11676900112164,125.29047121573323,122.62049050993973,123.8016357421875,359700
2026-04-28,125.18128618602746,125.70734016180099,122.79914797388655,124.8338851928711,354300
2026-04-29,124.20857785922294,124.96292327213307,121.87607050853111,121.9852523803711,448400
2026-04-30,122.51130595027864,125.14158341040145,120.97283963229869,122.75944519042969,764800
2026-05-01,126.26316859263083,127.5237125861033,117.0224658192811,118.13412475585938,989400
2026-05-04,117.79666211505766,120.84381172589876,116.58574139374336,119.7023696899414,739600
2026-05-05,120.00014032911528,122.78922301811379,119.92073395333378,121.1217269897461,628600
2026-05-06,122.74597925597982,125.94466800462597,121.24129756714204,122.19791412353516,917000
2026-05-07,122.5068295340525,126.02439054042098,122.13813047351475,124.66918182373047,749700
2026-05-08,124.78875603965518,125.4165335007669,119.9658058031768,120.56369018554688,794900
2026-05-11,120.79288554794945,120.79288554794945,119.0191585502766,119.53732299804688,706100
2026-05-12,120.02559365453983,120.43415267647454,116.72725880994862,117.6340560913086,696600
2026-05-13,117.58423293808002,118.33159035082205,116.01976505817387,117.46465301513672,679500
2026-05-14,118.31166263789773,119.73662439056804,116.62761485678391,117.57426452636719,531000
2026-05-15,117.49455009110837,117.5045093824967,114.06666843041747,114.26596069335938,447000
2026-05-18,115.19268785792543,116.90662874327987,114.76420263658683,115.40194702148438,433100
2026-05-19,115.48166685737739,115.63113986049136,112.05378509001822,113.20970153808594,575800
2026-05-20,113.66807993613209,115.04321484042606,111.15696237122292,114.85388946533203,562600
2026-05-21,116.08951407739181,116.08951407739181,112.37265332877841,115.1030044555664,345600
2026-05-22,115.39198749681162,116.38846404651633,114.30582410432685,115.82047271728516,405800
2026-05-26,115.79056648170686,116.55785764558959,114.96349676302546,115.96993255615234,344500
2026-05-27,116.52796630163347,117.69384200162881,114.32575411191587,114.89374542236328,464000
2026-05-28,114.40547144179769,115.93007936247552,112.95061657623215,115.58131408691406,510100
2026-05-29,114.65458561775299,116.84683851674723,113.34920381323532,115.44180297851562,559600
2026-06-01,114.28589767180515,114.72434218302038,111.63526640610465,111.9840316772461,706800
2026-06-02,111.5555436879482,112.65167394505289,110.84804626905223,111.78473663330078,452400
2026-06-03,111.29646253608045,113.61824699938008,111.29646253608045,112.13349914550781,372600
2026-06-04,114.54497230632394,115.35212345281656,111.14699134502068,112.15343475341797,337600
2026-06-05,112.69152600064275,114.18624078068318,111.58544405772433,112.96057891845703,466300
2026-06-08,111.86445781905672,112.24311616501637,110.55906839000053,111.54558563232422,422200
2026-06-09,112.88085932662787,115.74074968498803,112.27300803930216,115.49163055419922,444400
2026-06-10,115.74074928767203,116.13934141606836,112.97054577921195,114.26596069335938,496800
2026-06-11,114.70441351982215,116.59772043978674,113.85740999319688,116.16923522949219,395200
2026-06-12,117.48458764205596,118.05257897569324,115.96993901734801,117.30522155761719,342600
2026-06-15,118.28175862932584,120.31457162088154,117.14577601676713,117.66394805908203,576100
2026-06-16,118.08246565966249,120.62348378448296,113.36912845320511,120.22489166259766,474700
2026-06-17,121.19147655168894,121.918900150595,119.03908362900873,119.56721496582031,680500
2026-06-18,120.03556323646836,122.1182031608104,118.69032142639777,119.89605712890625,750600
2026-06-22,119.13873446752551,120.58363003359555,118.46113010611298,119.57718658447266,468400
2026-06-23,119.93591657137902,122.14809569936509,118.6604278207416,120.1850357055664,514100
2026-06-24,121.55021059109053,124.60939323702425,121.34094382937874,123.84210205078125,404900
2026-06-25,125.28699706013307,127.68850153642342,124.45991971828299,125.98452758789062,363500
2026-06-26,125.49625757990486,126.67210019838983,124.3204149614199,125.53611755371094,727400
2026-06-29,125.16742108368359,125.60587320209562,123.48337326752176,124.84854888916016,446600
2026-06-30,124.16097333332938,125.86494727656601,123.5033027809896,124.75885772705078,329300
2026-07-01,124.67914609082169,126.39307933521575,123.66273577346423,124.80868530273438,405600
2026-07-02,125.82508774888942,127.77818082996899,124.96812492977865,126.5325927734375,468400
2026-07-06,125.98452783897301,126.6023460237271,123.74245564919634,125.56600952148438,431400
2026-07-07,126.18381913439254,128.26645901687073,125.71548155556971,127.2400894165039,392700
2026-07-08,126.00445175211411,126.26353777363065,122.60647080352626,123.77234649658203,537700
2026-07-09,124.02146439127118,125.03787467960888,123.34386006655016,124.0114974975586,302100
2026-07-10,124.55956853594634,126.53259544666133,123.93179104742975,125.08769989013672,385200
2026-07-13,125.64571994715708,126.72191640641843,123.96167980892794,124.449951171875,391600
2026-07-14,127.96751666781715,128.95403392567474,127.5091383673285,127.82801055908203,739900
2026-07-15,129.25298235497795,130.3092450844948,127.99741214779503,128.65509033203125,466800
2026-07-16,129.56187796196684,134.6040465870392,129.56187796196684,134.27520751953125,579300
2026-07-17,135.351401437915,136.16850424088722,130.24944675099272,132.1427459716797,530800
2026-07-20,131.9135687694055,131.9135687694055,129.2928306127641,129.4522705078125,422900
2026-07-21,130.07008242817932,130.59821378154385,127.46927803301472,128.45579528808594,328800
2026-07-22,129.35261865201468,130.02025611657908,128.02730301458666,128.71487426757812,309900
2026-07-23,128.39600579528673,129.36258923692642,127.71839385448645,128.54547119140625,382800
2026-07-24,129.13338680160044,132.26232242316664,129.13338680160044,131.8936309814453,335900
2026-07-27,132.72071171310446,133.60757521827134,132.19258036761323,132.9000701904297,411200
2026-07-28,134.9030016293852,137.54365843276426,134.3549364800917,137.32443237304688,593100
2026-07-29,135.52081464440568,136.11870667337666,134.0759266469227,135.75,580000
2026-07-30,136.39999389648438,136.39999389648438,133.11000061035156,133.8699951171875,627000
2026-07-31,137.4600067138672,139.57000732421875,132.1699981689453,133.9600067138672,886500
2026-08-03,137.22999572753906,138.4600067138672,134.52999877929688,136.77000427246094,642500
2026-08-04,137.8699951171875,137.8699951171875,135.33999633789062,136.17999267578125,511900
2026-08-05,136.8699951171875,136.8800048828125,134.8699951171875,136.75,454800
2026-08-06,138.6199951171875,138.69000244140625,134.6699981689453,135.77999877929688,545000
2026-08-07,135.05999755859375,137.67999267578125,134.7100067138672,135.4199981689453,686300
2026-08-10,134.38999938964844,134.52000427246094,132.92999267578125,133.67999267578125,446700
2026-08-11,132.8000030517578,135.0500030517578,132.8000030517578,134.75,343700
2026-08-12,133.50999450683594,134.47000122070312,132.27000427246094,133.14999389648438,315100
2026-08-13,134.44000244140625,134.44000244140625,132.08999633789062,132.57000732421875,490800
2026-08-14,132.08999633789062,132.75,129.55999755859375,132.10000610351562,381600
2026-08-17,133.16000366210938,133.16000366210938,130.22000122070312,131.74000549316406,374500
2026-08-18,132.75,133.47000122070312,131.22000122070312,131.72999572753906,500100
2026-08-19,133.0500030517578,134.3800048828125,132.2899932861328,132.92999267578125,390400
2026-08-20,131.4499969482422,133.8300018310547,130.89999389648438,132.9600067138672,420900
2026-08-21,134.0399932861328,135.1300048828125,133.10000610351562,134.8000030517578,400500
2026-08-24,135.36000061035156,136.33999633789062,134.38999938964844,134.75,282300
2026-08-25,135.58999633789062,135.58999633789062,133.22000122070312,134.72000122070312,280900
2026-08-26,135.0,136.63999938964844,134.44000244140625,135.24000549316406,281400
2026-08-27,133.77999877929688,134.69000244140625,132.25999450683594,132.86000061035156,295700
2026-08-28,133.5500030517578,133.66000366210938,132.0399932861328,132.99000549316406,325400
2026-08-31,132.2100067138672,132.44000244140625,130.8300018310547,131.6199951171875,389200
2026-09-01,131.64999389648438,132.07000732421875,130.77999877929688,130.9199981689453,418200
2026-09-02,131.27000427246094,132.25999450683594,129.69000244140625,130.3300018310547,472500
2026-09-03,130.64999389648438,130.64999389648438,126.98999786376953,128.30999755859375,340000
2026-09-04,127.52999877929688,128.47000122070312,126.52999877929688,127.41000366210938,324000
2026-09-08,126.19999694824219,126.98999786376953,124.25,124.33999633789062,362200
2026-09-09,123.97000122070312,123.97000122070312,121.08999633789062,122.11000061035156,383000
2026-09-10,122.05000305175781,123.12000274658203,120.73999786376953,123.05000305175781,435100
2026-09-11,124.8499984741211,125.5999984741211,123.05999755859375,124.83999633789062,491900
2026-09-14,125.27999877929688,126.20999908447266,124.0,124.91000366210938,423200
2026-09-15,124.8499984741211,124.86000061035156,123.41000366210938,124.68000030517578,474700
2026-09-16,124.83999633789062,126.25,123.19999694824219,124.70999908447266,461600
2026-09-17,125.66000366210938,126.22000122070312,124.55000305175781,125.5,551500
2026-09-18,125.48999786376953,125.7699966430664,124.41000366210938,124.44000244140625,821300
2026-09-21,124.83999633789062,125.9800033569336,123.31999969482422,123.4000015258789,424400
2026-09-22,124.72000122070312,125.80000305175781,123.83000183105469,125.44999694824219,417700
2026-09-23,125.43000030517578,125.72000122070312,124.5,124.73999786376953,335300
2026-09-24,124.51000213623047,124.98999786376953,122.31999969482422,123.37999725341797,377200
2026-09-25,123.76000213623047,124.05000305175781,122.41999816894531,123.87000274658203,325600
2026-09-28,122.88999938964844,124.58999633789062,122.08999633789062,124.44999694824219,713300
2026-09-29,123.83000183105469,124.66999816894531,122.12000274658203,123.29000091552734,409800
2026-09-30,123.06999969482422,123.06999969482422,121.12999725341797,121.16000366210938,424100
2026-10-01,120.22000122070312,121.62000274658203,119.22000122070312,120.87000274658203,389000
2026-10-02,121.33999633789062,121.91000366210938,119.80500030517578,120.57499694824219,142207
