Date,Open,High,Low,Close,Volume
2023-07-10,109.00500198025017,110.91940103944074,108.71640430737611,110.12093353271484,248000
2023-07-11,109.96700910178262,111.16951775643263,109.06272758436648,111.12142181396484,226700
2023-07-12,112.15075804421535,113.08390584398397,111.37152752074805,112.42974090576172,199400
2023-07-13,112.41049037080688,112.91073800474413,112.13150752486675,112.56441497802734,190200
2023-07-14,113.21858729804248,114.3248892919281,112.26619524240341,113.85350799560547,271600
2023-07-17,113.9016239392938,114.99831127119708,112.70873738064174,114.72895050048828,234200
2023-07-18,114.48843831688549,115.7967682319705,114.19021119978753,114.55577850341797,189100
2023-07-19,114.23830983130526,114.8732378552366,113.81502448201769,114.58463287353516,247200
2023-07-20,115.22918005668726,115.65246542204783,114.34413551050594,114.79627990722656,175800
2023-07-21,115.10411944391612,115.48892364638458,114.35375528584399,115.28689575195312,184300
2023-07-24,115.46005920763793,115.91220360263762,114.19983257951267,115.18108367919922,163400
2023-07-25,115.13297461841519,116.51826676509069,114.76741467505558,115.97953796386719,250700
2023-07-26,115.98919341730534,116.22086084233958,114.69570161800037,115.7864761352539,306900
2023-07-27,115.89267286358223,116.58768258896228,114.61849082191067,115.00460815429688,407800
2023-07-28,118.23831895027517,122.58212207343301,117.64949171552556,119.4835433959961,513000
2023-07-31,119.23256614634282,119.62833841068284,116.63594217392378,117.24407196044922,746500
2023-08-01,117.03171151335569,118.24797849712147,116.5587216614483,118.1900634765625,365300
2023-08-02,117.22475920809303,118.08386627371769,115.81543742218545,117.99698638916016,329200
2023-08-03,117.30198526491023,118.46999212502719,116.52975802792562,116.61663055419922,195900
2023-08-04,116.43324261303452,117.8908247118192,116.29810264843958,116.45254516601562,116500
2023-08-07,116.53941911210748,117.43713875366868,116.32705421728596,117.0799789428711,140300
2023-08-08,115.91197623422308,117.18615820393119,115.55481643313685,116.91587829589844,270100
2023-08-09,116.91587211476954,119.10707613725458,116.33669249723364,117.60122680664062,287500
2023-08-10,117.57227564334059,119.28083498646278,117.57227564334059,117.98735046386719,216000
2023-08-11,117.29233942455933,118.94298372960004,117.29233942455933,118.35415649414062,226500
2023-08-14,117.79429298790114,118.7209701538086,117.35991559795484,118.7209701538086,145700
2023-08-15,118.37347596157628,118.66306582401643,117.74604353391618,117.85221862792969,249000
2023-08-16,117.5047117104786,118.8850761972262,117.27303689321533,117.32130432128906,291100
2023-08-17,117.72671616217751,118.40242328617137,117.39852124033838,117.4178237915039,186600
2023-08-18,117.16684484694098,119.13603644494522,117.16684484694098,119.01055145263672,443100
2023-08-21,118.87541361000102,120.13994060696739,118.78853371795883,119.4835433959961,358800
2023-08-22,119.57042216370789,121.34655144459086,118.49895014757142,118.6823501586914,429600
2023-08-23,118.7885312290575,119.27117601040692,118.06456405703335,119.1070785522461,305000
2023-08-24,119.20360046165038,121.10522198957945,118.33483842292966,120.76737213134766,278400
2023-08-25,121.21141540913233,123.24817706491329,120.64189807716028,123.113037109375,493000
2023-08-28,123.1998997920223,125.08221879013223,123.1998997920223,124.91812133789062,331900
2023-08-29,125.29457977895636,127.37960862951105,124.90845514228948,127.24446868896484,472400
2023-08-30,127.77535859891267,128.6344656122843,127.12861644090465,128.27731323242188,298900
2023-08-31,128.6538033664297,129.08818076307503,127.6499086113127,127.95879364013672,305800
2023-09-01,128.48006235551034,129.1460998625125,127.92019257336877,127.94915008544922,252000
2023-09-05,127.10931616019016,127.39890596028071,122.939273117993,123.14198303222656,325300
2023-09-06,123.35435957766143,123.56671710464039,121.81954527524937,122.02226257324219,291100
2023-09-07,121.90642476392419,122.7558769627409,120.79634024831218,121.00870513916016,328600
2023-09-08,121.15348865161297,122.27322065538502,120.77702633129032,120.9604263305664,238800
2023-09-11,122.58212288434471,123.48949745495977,122.02226051962224,122.60143280029297,333500
2023-09-12,121.73267217607768,122.87171419988563,121.06661999469735,122.13809204101562,258000
2023-09-13,121.41410590959278,122.19598800786005,120.76736374523405,121.01834106445312,279300
2023-09-14,121.63614783178475,122.88137233304762,121.63614783178475,122.36011505126953,217900
2023-09-15,122.09947397972398,122.78482868131519,120.8252920593083,121.55891418457031,589200
2023-09-18,121.97400910246282,121.97400910246282,120.58398955476375,121.27899932861328,175100
2023-09-19,121.32724105826763,121.32724105826763,119.75381444117978,120.9604263305664,218600
2023-09-20,121.47202311517856,121.72300043893324,120.23645377450039,120.30402374267578,206200
2023-09-21,120.01443769668958,120.03374024505355,117.94871888676863,117.97767639160156,335700
2023-09-22,118.08388014980025,118.63409493473912,117.87151525656503,118.4217300415039,341200
2023-09-25,117.7556883873549,119.82140775524918,117.25374098399664,119.73453521728516,258800
2023-09-26,119.24222921346016,119.90828142821822,118.95264673738208,119.30979919433594,547000
2023-09-27,119.73451388259583,120.13027875931763,118.60512690284568,119.23255920410156,362400
2023-09-28,119.56077415880812,121.27898852184504,118.98160185373365,121.1148910522461,219300
2023-09-29,122.0994808328885,122.42768313020652,120.45849144002428,120.69981384277344,330900
2023-10-02,120.20751032066919,121.1245398411893,119.68625306327961,120.70946502685547,244100
2023-10-03,119.71521017927378,120.96043461818644,118.23831830380705,118.60513305664062,236300
2023-10-04,119.26154096613664,120.33301308264014,118.08388639739762,119.91793823242188,208200
2023-10-05,119.65729213678843,120.5936241817703,118.53756008460046,119.45458221435547,466700
2023-10-06,119.31944873185724,122.29254248446563,119.10708384030303,122.02226257324219,491700
2023-10-09,121.45273985524017,122.80414679795139,121.32725485572051,122.53386688232422,275700
2023-10-10,122.82345832231506,124.14590785132584,122.11880097146492,122.14775848388672,322000
2023-10-11,123.1033706665039,123.26746811655187,122.25391854457223,123.1033706665039,212900
2023-10-12,122.8041363601095,122.9778887717552,120.71910742036091,121.06661224365234,189300
2023-10-13,121.62649932106444,122.27324163725763,121.04732698768882,121.59754180908203,324900
2023-10-16,122.93929125115677,123.00686123253432,121.79059420316273,122.31185150146484,275200
2023-10-17,121.63616055730239,123.88528002405964,121.63616055730239,123.05513763427734,314400
2023-10-18,122.46629731522039,123.23852459609822,121.89677260716917,122.3794174194336,287300
2023-10-19,121.70372516072125,123.04547723269556,121.03767292190815,121.36587524414062,443900
2023-10-20,121.55889932589582,122.0898114630795,117.69774157059325,117.97767639160156,446500
2023-10-23,117.49505685595796,118.88507630246588,117.00275707455714,117.2826919555664,379000
2023-10-24,117.89081547731821,119.4738898224914,117.49505057331248,119.0588150024414,312100
2023-10-25,118.57457241634825,119.88205825668655,118.05157660238528,118.51646423339844,431300
2023-10-26,117.44140514446426,121.44134471348447,117.44140514446426,119.5430679321289,576000
2023-10-27,119.58181419956955,119.94015782086082,116.56975044747777,117.35424041748047,364000
2023-10-30,118.08063424721645,118.46803938652907,117.04432974830978,118.32276153564453,283100
2023-10-31,118.65205658315872,119.0200873955642,117.99347007365428,118.41960906982422,422900
2023-11-01,118.26465305275431,119.54308483686565,117.78039847711914,119.05883026123047,360500
2023-11-02,119.82393753491263,120.37598738258195,119.10724292668908,119.68834686279297,384300
2023-11-03,120.51159177876306,122.00309673107184,120.51159177876306,121.40261840820312,278000
2023-11-06,121.32513288888951,121.7706535816755,120.82151140319914,121.2476577758789,173500
2023-11-07,120.69559532283566,121.05393892700246,120.25976183544348,120.62779998779297,205000
2023-11-08,120.94740785382807,121.53819896716833,120.49221480588676,121.17985534667969,175800
2023-11-09,121.7319040679417,121.7319040679417,120.16291675704831,120.47283935546875,118600
2023-11-10,120.32755920226418,121.82875114673432,119.98858252132696,121.76095581054688,195600
2023-11-13,121.44136268053566,121.5285323470718,120.45348659100293,120.60844421386719,183100
2023-11-14,121.98372186279225,123.83357784628552,121.36387661125713,123.82389068603516,267400
2023-11-15,123.79482241076971,124.74396449982626,123.33962198995368,123.68828582763672,388600
2023-11-16,123.63018988768,124.56963752144287,122.84569248067687,123.53334045410156,217000
2023-11-17,124.51152524922635,125.01515410991232,123.5914445767463,123.9013671875,162700
2023-11-20,123.43647327736079,123.63017951740747,122.44859731510405,123.3105697631836,213900
2023-11-21,123.44617785383001,124.25972939853608,123.19436340080925,123.88201141357422,160600
2023-11-22,124.40497858710981,125.13136033998698,123.3493073197142,124.52120971679688,174800
2023-11-24,124.90862165558492,124.90862165558492,124.06602345517848,124.48247528076172,65900
2023-11-27,123.794825618472,124.25971321047442,122.85537066421331,123.00064849853516,367500
2023-11-28,123.00063818205517,123.01032534063415,121.53818758038103,121.65441131591797,218000
2023-11-29,121.68346835701487,122.41953725501332,120.98614070513605,121.4219741821289,331800
2023-11-30,121.4994637924141,123.1265593780295,120.87961855876425,122.89411926269531,301000
2023-12-01,122.43890670746781,124.492141070173,122.43890670746781,124.06600952148438,218300
2023-12-04,123.43647582266271,124.8214514528582,122.89411311762335,124.37593078613281,192000
2023-12-05,124.21129359931997,124.63743997307381,121.91592434406154,122.0224609375,178000
2023-12-06,122.40985460010225,123.29120135619293,121.91591293032465,122.39048767089844,179500
2023-12-07,122.2645865924303,123.10719216867501,122.02245931767312,122.5067138671875,254000
2023-12-08,122.38080197837209,123.48490168465685,121.66410736304317,123.3105697631836,265800
2023-12-11,123.25246079430477,123.65923281208454,122.36142687408662,123.55269622802734,338000
2023-12-12,123.6301827914491,124.06601630124297,122.69072782247173,123.46553802490234,210300
2023-12-13,123.17497167895708,124.92797794750753,123.17497167895708,124.54056549072266,425000
2023-12-14,125.01515711630776,125.91586349088605,122.88443265064014,123.3880615234375,412900
2023-12-15,123.15562796620185,124.53090919591942,122.0030997047044,122.01278686523438,713000
2023-12-18,122.71979057892658,123.2040451423613,121.91592623023179,123.04908752441406,240500
2023-12-19,123.68828729734022,124.09506670556218,122.06119183186492,122.25489807128906,659100
2023-12-20,122.05149532482255,122.94252917965532,121.50913267424889,121.61566925048828,346400
2023-12-21,122.26458682357395,122.26458682357395,120.91835976450997,121.94498443603516,421900
2023-12-22,122.41954341082864,123.03938860163689,122.14836206349223,122.29363250732422,312200
2023-12-26,122.16772810971344,122.87474295084685,121.63504518905556,121.86749267578125,274700
2023-12-27,122.1483674460001,122.48734414510773,121.09268870976447,121.3348159790039,283100
2023-12-28,121.04426606095606,121.8384431978116,120.4825290304847,121.25733184814453,343600
2023-12-29,121.24765553578665,121.4123003079572,119.66898098751031,119.72709655761719,313500
2024-01-02,118.74889703904802,120.19197347679686,118.43897443384415,119.01039123535156,313100
2024-01-03,121.20890647105196,123.25246111360688,119.27188841283024,121.41229248046875,531700
2024-01-04,121.23797252388182,121.95466720719149,120.22103498730522,120.3082046508789,353300
2024-01-05,119.88205394447617,120.45347814976842,119.11693087689318,120.28882598876953,423000
2024-01-08,120.16292355411841,121.21860231382453,118.51646104234021,120.4341049194336,352400
2024-01-09,119.81424239127303,120.7149560184084,119.09754783081017,120.70526885986328,250300
2024-01-10,120.54064287476366,121.4704107331338,120.31788991750878,121.2476577758789,279600
2024-01-11,121.43165795791798,122.97159113814334,121.00551901481788,122.8456802368164,323100
2024-01-12,123.86263082764847,123.9401133306804,121.95466667803164,122.4486083984375,231700
2024-01-16,121.91591381064313,122.82631466168198,121.55757019925443,122.8166275024414,257500
2024-01-17,121.97403476171849,123.26214621035574,121.92560635251516,122.7004165649414,336900
2024-01-18,123.31057128043204,125.91585558616275,122.33237507628849,125.07325744628906,444200
2024-01-19,125.62532832931079,127.32021934154592,124.49215961910426,126.68099975585938,418000
2024-01-22,126.77781705766294,127.65916375877843,126.44852755777603,127.0586929321289,266200
2024-01-23,127.64952714140907,127.69795556147523,126.22581730548167,127.67858123779297,217800
2024-01-24,127.95941976328007,128.1240645397181,126.42917358557357,126.66162109375,294400
2024-01-25,127.8722572161754,128.21124131759007,126.27422308842341,127.1168212890625,332300
2024-01-26,127.5332837592286,128.4146306738467,127.26210236677342,127.55265808105469,219900
2024-01-29,126.92310407579417,128.41460139422355,126.38074141454712,128.08531188964844,187800
2024-01-30,127.8722387329765,128.898855881519,127.4848410544498,128.08531188964844,228400
2024-01-31,128.6002223728795,128.9888396442922,125.48164845004577,126.18114471435547,537500
2024-02-01,126.74460821565047,127.37609079661618,125.91880961817465,126.78346252441406,298800
2024-02-02,126.25885461901954,126.98749524746113,125.02501900407364,126.39486694335938,344800
2024-02-05,125.45250566991007,127.70642657703459,124.40326125954347,126.92920684814453,319500
2024-02-06,126.76405604375617,127.6578535856557,125.61766837835263,127.39555358886719,369700
2024-02-07,127.66757043860348,128.64880125247385,125.6856594170207,128.0464630126953,393000
2024-02-08,127.89105007378835,130.99991494647986,127.79389202417045,128.3573760986328,620700
2024-02-09,128.34763875632336,135.24544372439263,127.76472023183752,135.0025634765625,650900
2024-02-12,135.19687008272106,136.4695602600504,133.5938514887977,133.69100952148438,491300
2024-02-13,132.79720331284167,133.41897613857319,131.13589593708764,132.058837890625,275900
2024-02-14,132.37943171551453,133.5452686480157,131.32047749858393,133.26351928710938,335000
2024-02-15,133.26351222976635,133.88528497619748,130.73756693299123,131.1941680908203,471400
2024-02-16,131.51479249745606,134.06989746093748,131.19418878983706,133.58413696289062,453900
2024-02-20,133.2343951113686,136.14895823746613,133.0498037415049,135.71177673339844,373000
2024-02-21,135.11917223266127,136.11983789722103,135.03173888121134,136.01296997070312,276300
2024-02-22,136.4695496025818,138.36401249814983,136.08094715065158,137.44107055664062,295700
2024-02-23,137.9268263528802,138.00454980547522,136.59584743474338,137.33419799804688,190300
2024-02-26,137.47022831952583,138.0142777346372,136.79016655063663,137.87826538085938,199200
2024-02-27,137.87823606201974,138.13082614411428,135.81861662156606,136.3140869140625,244600
2024-02-28,135.67288950179886,137.21761901910057,135.36201051839788,136.4112548828125,189600
2024-02-29,136.62499564942553,137.59651659734325,135.8477759262447,136.4598388671875,250600
2024-03-01,135.89635016734115,136.78042293249038,135.58545635929062,136.29466247558594,151400
2024-03-04,136.68329367940922,138.07256161225055,136.55699120397486,137.91712951660156,260300
2024-03-05,138.21830138260887,139.13153352462706,137.7033964215534,138.461181640625,190200
2024-03-06,138.85950199121973,139.54928848635836,138.4223204664699,138.9955291748047,184000
2024-03-07,140.3847801035931,141.0065529311518,139.74357270585753,140.53050231933594,250100
2024-03-08,140.58879704632386,140.9385451659915,138.8983453305581,139.01492309570312,185200
2024-03-11,138.72349095328647,139.29669966708138,137.9365612363938,138.6749267578125,226700
2024-03-12,138.73323227997952,138.78181130551155,137.45081716227298,138.35433959960938,242200
2024-03-13,138.9274874603586,138.9274874603586,136.91643209967154,137.139892578125,336800
2024-03-14,137.33421990117986,137.5868100442241,136.36269882514554,136.9164581298828,235200
2024-03-15,136.051814987164,138.35433018745536,135.76037050227316,136.98448181152344,599500
2024-03-18,136.91646004723472,137.2759329308813,134.9734178679561,135.2940216064453,299700
2024-03-19,134.92484757362786,136.3238402513451,134.92484757362786,135.53689575195312,253000
2024-03-20,135.65346636305446,136.08093792573945,135.17741579111308,135.98377990722656,220000
2024-03-21,136.31408879230668,137.56735899681854,135.33285806548636,137.12045288085938,255800
2024-03-22,137.9657000290801,138.3931716662274,137.0330481155177,137.5576629638672,276000
2024-03-25,137.17878514196465,139.94762638401343,137.14964069303667,138.888671875,316300
2024-03-26,138.76236808895055,140.2002152448847,138.5583421241168,139.121826171875,314200
2024-03-27,139.57841110454743,141.01625793912805,139.57841110454743,140.54022216796875,218200
2024-03-28,140.69568229822846,141.21058725679168,139.55898965088838,139.7921600341797,247800
2024-04-01,139.6949981759376,139.6949981759376,138.07255988358438,138.2377166748047,204400
2024-04-02,137.80053208284255,137.80053208284255,136.3918296283509,136.625,202600
2024-04-03,136.66386346242072,137.16905855601934,135.886643662477,136.86788940429688,258700
2024-04-04,137.79082770836482,138.68462526566978,136.95531904023974,137.71310424804688,403600
2024-04-05,137.35367154402977,138.6943607151003,136.9359097208126,137.69369506835938,288300
2024-04-08,137.63536010287416,138.32514644438334,136.39181457314476,136.50839233398438,312500
2024-04-09,136.42095479960858,137.08159668050206,135.39114507938174,136.3140869140625,242600
2024-04-10,135.02200135989193,136.22669288767483,134.5070963512657,135.43003845214844,200700
2024-04-11,135.2940122618255,136.05179747346585,134.50708260544775,135.167724609375,265300
2024-04-12,134.23507075984173,134.99285604404997,132.08801739599699,133.29269409179688,299200
2024-04-15,134.66253312030298,135.82835541361058,133.90474788844134,134.2642059326172,319600
2024-04-16,133.86589230029864,135.42033206493574,133.44814532279122,134.6431121826172,281700
2024-04-17,134.92485214373025,135.50775589636643,134.4099471579958,134.45851135253906,565400
2024-04-18,134.44878861647487,135.46888861629466,134.28363182781587,135.14828491210938,246600
2024-04-19,135.09972514911323,135.9352339088312,134.81799054578042,135.3717498779297,276600
2024-04-22,135.57574676552883,137.1301713362783,135.28428752594058,136.32382202148438,298800
2024-04-23,135.78949299276147,137.13990657658505,135.54661274513685,136.15866088867188,417200
2024-04-24,136.36327776431676,137.28892764322538,136.06122500182607,136.42173767089844,559200
2024-04-25,136.25611957141976,137.62998708151534,135.3596994927864,136.58740234375,694400
2024-04-26,138.36073105493026,144.70388316147535,138.2632879732938,139.65664672851562,489500
2024-04-29,141.18639874124986,144.22644737875467,140.6699831295305,142.62847900390625,676700
2024-04-30,142.00489424371338,142.35566854502932,140.36794254832975,140.67974853515625,585100
2024-05-01,141.2741247498313,143.43723060207003,140.87462887898343,141.6541290283203,359600
2024-05-02,142.02439483195232,142.96953644520997,141.56643900417882,142.1802978515625,356500
2024-05-03,143.33978450110888,143.3592760930588,141.12795714823582,143.04747009277344,303300
2024-05-06,143.97312732609103,145.25930484115804,143.38851334738442,145.22032165527344,260200
2024-05-07,144.51880499832362,146.52600814534517,144.51880499832362,145.88291931152344,392900
2024-05-08,145.8829062711246,147.003427580538,145.64905175216694,146.92547607421875,223500
2024-05-09,147.13008393869177,147.8413709100011,144.82082843851902,145.25929260253906,299100
2024-05-10,145.13266617072512,145.18138773075847,144.2947058884423,144.68446350097656,186300
2024-05-13,144.72338042953453,145.6490302704912,143.0961820029054,144.08029174804688,167500
2024-05-14,144.49928507792563,144.5090234397785,143.690555012297,144.10952758789062,137600
2024-05-15,144.16801247457715,144.53826353142094,143.00850802044988,143.50543212890625,211100
2024-05-16,143.5931171809895,144.10953286493412,142.67720563052816,143.75875854492188,235500
2024-05-17,144.06083161219536,144.3726227596562,143.3592829457471,143.88543701171875,169500
2024-05-20,143.80748238942644,144.60647413522753,143.27157510477068,144.37261962890625,163400
2024-05-21,144.14849442760928,144.8695196839022,143.32027286444836,144.78182983398438,280400
2024-05-22,144.2751965381992,145.01571353298542,143.6905676854479,144.9767303466797,283300
2024-05-23,144.85006990865986,145.1326311002017,143.77825531785473,143.9341583251953,171700
2024-05-24,144.67466674114488,145.01570269104084,143.58337548984295,144.29466247558594,162300
2024-05-28,143.836724802742,143.9926278204598,142.08286789047202,142.95005798339844,318400
2024-05-29,141.91719871726886,142.94029173473893,140.80641583571733,141.12796020507812,229700
2024-05-30,141.41055859095138,143.2131371752501,141.28388552211965,142.39466857910156,328100
2024-05-31,142.34592221115324,144.04133389426428,142.18028084802555,143.90492248535156,358900
2024-06-03,144.69416726211233,144.69416726211233,142.53106134998768,144.36288452148438,266200
2024-06-04,143.86596660891678,144.58700697444903,142.94031652504205,144.3921356201172,287900
2024-06-05,143.93414175864157,144.4018358591035,143.31054466878322,144.12901306152344,229200
2024-06-06,144.2167184531987,144.2167184531987,141.67360827716013,142.21926879882812,197600
2024-06-07,142.0341108036029,142.57975636137067,141.72230484617774,141.8197479248047,179100
2024-06-10,141.1182475484224,142.0731276003924,140.2997789324481,141.8587646484375,125800
2024-06-11,141.19616629951713,142.0048963637283,140.65052068215246,141.7710418701172,147700
2024-06-12,142.49210149645975,142.56029977406186,140.37771700711468,142.0926055908203,221300
2024-06-13,142.15106550525925,142.77466270549132,141.30336701043458,142.0926055908203,232400
2024-06-14,141.37156596501876,141.65414204313348,139.99769849820458,141.040283203125,141500
2024-06-17,141.15718412148226,142.92079402863507,140.86488458704773,142.57977294921875,303800
2024-06-18,142.7259479317824,143.9049441106309,142.7162095681568,142.93057250976562,219900
2024-06-20,142.9013265736243,143.74902501392364,141.93669344423844,142.07310485839844,199900
2024-06-21,142.13154639662324,143.36900219437092,141.5859008105154,143.08644104003906,444100
2024-06-24,143.44697885929565,144.43108875923312,142.91107154042683,142.9597930908203,182900
2024-06-25,143.02797539856016,143.0377286281878,140.79667136986237,141.14744567871094,194500
2024-06-26,140.5530705033319,141.07922450275757,139.2961379744262,140.02691650390625,192400
2024-06-27,140.1828155517578,140.19256878158996,138.6238301546421,140.1828155517578,377300
2024-06-28,140.0951482862496,140.62131727928735,136.49971468217123,137.20126342773438,435100
2024-07-01,137.75665211276703,137.85408034544307,134.84327587630082,134.9894256591797,306400
2024-07-02,134.93096624606906,136.8992009132668,134.22941755019122,136.8017578125,259400
2024-07-03,137.2694557978359,137.77611825136836,136.96740302461077,137.60073852539062,143300
2024-07-05,137.37664516545647,137.81510937338362,136.14892754198513,137.2889404296875,207000
2024-07-08,138.01971219176104,138.8479338848322,137.87356241897373,137.88330078125,249300
2024-07-09,137.24996524910202,137.64946111828195,136.16841232749826,136.4509735107422,238400
2024-07-10,137.14277603381836,138.00022763276843,136.96739631643013,137.66893005371094,142000
2024-07-11,137.58126568918084,139.62745197757425,137.14280144673384,138.44845581054688,244500
2024-07-12,139.73460255093156,141.76129679642114,139.73460255093156,140.8843536376953,263900
2024-07-15,141.05002056298503,141.956193837872,139.47154340588315,139.7541046142578,319900
2024-07-16,140.1633528436763,141.57618861187552,140.1633528436763,140.8551483154297,178800
2024-07-17,140.6407683731012,142.03412724659594,140.6407683731012,141.14744567871094,242300
2024-07-18,140.90385313125856,143.47619311255724,140.89411476933762,142.5310516357422,434200
2024-07-19,142.8331035452224,142.8331035452224,140.95257383249924,142.19976806640625,251200
2024-07-22,142.248512205413,143.77826785359764,141.52747188439355,143.41775512695312,235700
2024-07-23,144.08031236478044,144.70390954486243,141.9366979874817,142.29721069335938,234500
2024-07-24,142.3264523213691,142.87209798322195,140.21205308009542,140.44590759277344,250600
2024-07-25,139.60532117118015,140.79777835848,138.03166963150022,138.2955780029297,558100
2024-07-26,139.89855967497675,147.87432007213235,139.13617092314783,143.34886169433594,562800
2024-07-29,143.27066227743248,145.00070512899177,141.89249229543964,144.46311950683594,390900
2024-07-30,144.05258512959574,144.5608342758621,142.12706091227471,142.45938110351562,411000
2024-07-31,143.1924622534942,145.48941215296958,142.12707481683992,143.66162109375,280600
2024-08-01,143.56387227526403,146.16380570863123,142.14659721829562,143.71047973632812,335300
2024-08-02,143.27064734257746,143.6811631618967,140.50453880627654,142.40074157714844,213500
2024-08-05,140.19175816641953,140.19175816641953,136.33094072792318,137.50384521484375,448500
2024-08-06,138.13918435319152,142.7917121263533,137.92415011565598,141.65789794921875,476000
2024-08-07,142.71350311829138,143.93528166502995,140.2308556736058,140.35792541503906,353600
2024-08-08,141.19851020506624,142.86012605228407,141.19851020506624,142.27366638183594,268600
2024-08-09,142.12708691616425,142.12708691616425,140.2308838444139,140.70004272460938,263200
2024-08-12,140.71958701960284,140.92483749251866,139.5466824314966,140.054931640625,221100
2024-08-13,140.269965572886,142.01956104764162,139.86923348856917,141.1105499267578,212000
2024-08-14,140.87598685966623,141.54062736485398,140.25043671360459,140.6511688232422,115700
2024-08-15,141.72633364426625,144.01349986295762,141.72633364426625,143.69094848632812,277500
2024-08-16,142.8112726046603,143.52478720605873,142.32256111329048,143.40750122070312,250600
2024-08-19,143.01653650230918,144.39469155874292,142.62555836471478,143.65185546875,191200
2024-08-20,143.66163572090477,144.9616101671914,143.66163572090477,144.76612854003906,387200
2024-08-21,144.82477331506968,146.19317455052297,144.13081129301386,145.95858764648438,267300
2024-08-22,146.19315832348536,147.004406250368,145.313468716703,145.62625122070312,200400
2024-08-23,146.28111414215468,147.131467288796,146.06607991196887,147.0435028076172,221400
2024-08-26,147.27808563075303,149.22316270583966,146.7502837904236,146.76983642578125,235500
2024-08-27,146.62322588234906,148.11868195082016,146.45706575410696,147.78636169433594,208300
2024-08-28,147.52242380780478,148.5389519252962,147.52242380780478,148.11865234375,249000
2024-08-29,149.10587309256547,149.45774594898302,147.79612992701317,148.8419647216797,187100
2024-08-30,148.76376076539145,149.97577051724159,148.21640633368162,149.73141479492188,178500
2024-09-03,148.67581490735162,148.93972329651422,146.34954336691524,146.6525421142578,362400
2024-09-04,146.2224723339692,147.49311017712768,146.2224723339692,147.3269500732422,175800
2024-09-05,147.66905729781163,148.33369772794828,146.56456461999554,147.3171844482422,200600
2024-09-06,146.9848515838682,149.6629806227301,146.9848515838682,148.939697265625,319100
2024-09-09,149.12543417994374,149.60436190451168,148.02094141802903,148.48033142089844,241500
2024-09-10,148.4412283503302,149.34045573341479,148.02094361320775,148.08935546875,158100
2024-09-11,147.3856198816263,147.47359929381446,145.2743973606703,147.4344940185547,178000
2024-09-12,147.48335555565916,148.57806454072724,146.58412818731162,148.52920532226562,200400
2024-09-13,148.75400023614793,149.55547929481034,148.47053923038047,148.8419647216797,138600
2024-09-16,149.58482418923165,149.71189396440403,148.63673750637577,149.5359649658203,182900
2024-09-17,150.52312888636465,152.05769002153292,148.44121330516873,149.5750274658203,259900
2024-09-18,150.2885297114155,151.97948195392672,149.26224766629488,149.61412048339844,214200
2024-09-19,151.5201208780258,155.22454756499997,151.5201208780258,153.357666015625,412400
2024-09-20,152.78097785998767,152.78097785998767,150.9922920842791,152.3900146484375,663300
2024-09-23,152.64413901555898,153.36743736156149,151.24643136778755,152.4388885498047,315800
2024-09-24,152.65389777391002,153.5335873118005,152.50729030807304,153.09375,246200
2024-09-25,153.7486153545566,154.30573861662077,152.35089294120183,153.59222412109375,284100
2024-09-26,154.3741613127642,155.4688700896262,154.13957446874156,154.80422973632812,371600
2024-09-27,155.0974630619756,157.9026770071578,154.6869472219151,156.2801513671875,354300
2024-09-30,155.6936899424124,156.79818261159085,155.34181709559473,156.57337951660156,289800
2024-10-01,156.91549130804347,156.91549130804347,155.4591404954803,156.35836791992188,192200
2024-10-02,156.25084899293302,156.49520475484402,154.39375116812636,155.16590881347656,186900
2024-10-03,154.42305944347365,156.83729535757135,153.10353247642593,155.3516082763672,367000
2024-10-04,156.32902451153032,157.82448038886116,155.73279593261282,156.95457458496094,350500
2024-10-07,155.79144712681207,156.03580287015131,154.4425986510062,155.1072540283203,223300
2024-10-08,154.7065131414347,155.4298115394373,153.5531611461703,155.08770751953125,205900
2024-10-09,154.77492465796232,156.4365406316993,154.5501066490753,156.0944366455078,152600
2024-10-10,154.4816916598629,155.78166590095645,154.4816916598629,155.62527465820312,168500
2024-10-11,157.30645085148657,158.26432115973958,156.72977489447743,157.90267944335938,194400
2024-10-14,161.26501674638376,163.9724675604005,159.76956083662878,163.41534423828125,469700
2024-10-15,163.54240800657777,165.82957403020615,162.73114520381247,164.87168884277344,397300
2024-10-16,164.89125425631357,165.37996574783452,162.1740195566003,162.2913055419922,330000
2024-10-17,163.21007464638268,164.5198326911605,162.76046845617475,164.0995330810547,238200
2024-10-18,165.28223546267512,165.28223546267512,163.99202994227778,164.82284545898438,171500
2024-10-21,164.66642176272074,164.68597439489406,162.54541605771234,162.57473754882812,217900
2024-10-22,161.97853331620303,162.613852271317,161.0890748476109,162.06649780273438,228500
2024-10-23,162.75068294015622,164.1874958071609,162.40859387114415,163.8649444580078,318100
2024-10-24,164.96261949009553,164.9724146419279,162.8358901424772,163.22792053222656,547300
2024-10-25,165.5506429301697,166.46210050279106,161.3266145463958,165.5408477783203,518900
2024-10-28,166.51111226995798,167.9910028799948,165.39385168622255,165.72708129882812,350000
2024-10-29,165.6584567098737,166.10928794010354,164.29618282133464,165.3350372314453,338100
2024-10-30,164.99201804220056,166.80510810317358,164.76659496272163,165.658447265625,290300
2024-10-31,165.7172469973065,166.88351308507578,164.51178534847594,164.560791015625,329900
2024-11-01,164.74701596713246,167.57937026995276,164.27657947244072,166.0308837890625,316300
2024-11-04,166.24647677298762,167.16772943786702,164.82538726194682,164.90379333496094,191800
2024-11-05,164.39420326637682,166.9619390225879,164.39420326637682,166.91293334960938,206200
2024-11-06,171.6563823010005,171.6563823010005,168.7064263444236,169.70608520507812,264100
2024-11-07,170.72533703485217,171.96021416270565,170.07849805877953,171.2251739501953,412300
2024-11-08,171.2153418594072,174.2927092224774,171.00953900081066,172.2541961669922,309200
2024-11-11,172.80305109831977,174.47893431358193,172.39141544269447,172.6364288330078,189100
2024-11-12,173.12646726649535,173.70471027192264,171.46037909110905,172.19541931152344,179800
2024-11-13,171.9993896484375,172.87163666728088,171.5583685633018,171.9993896484375,168400
2024-11-14,171.65637889220199,172.28361258645606,170.4411220214521,170.62733459472656,198200
2024-11-15,169.51987152643795,170.29410728655165,162.8555040894364,163.16912841796875,620500
2024-11-18,163.07112374085875,164.4726082153111,161.05221564532687,163.36514282226562,384400
2024-11-19,163.10053178952467,164.32559889071484,162.8849187833606,163.57095336914062,287600
2024-11-20,163.6689523651395,165.57025875538363,162.3458740139482,165.36444091796875,221800
2024-11-21,165.32524989622468,166.83452591248917,164.3942019349008,166.49151611328125,205100
2024-11-22,166.7855161620559,168.63783184110315,166.7855161620559,168.0889892578125,241600
2024-11-25,168.61822873869966,170.54893557134125,168.31441450843965,169.0592498779297,270100
2024-11-26,169.41204948980848,169.41204948980848,167.74596152202398,168.6083984375,140300
2024-11-27,169.22586404114253,170.41173555223975,168.0988083114946,168.3046112060547,167200
2024-11-29,169.14745603968092,170.0295132982539,168.65742921417322,169.5100860595703,117300
2024-12-02,169.52966938718723,169.65708114199288,167.43235525852162,169.31405639648438,170900
2024-12-03,169.99028664377565,169.99028664377565,167.67735964872438,168.9612274169922,160100
2024-12-04,168.46141115590896,169.44146474689205,167.61856446948624,169.14744567871094,173400
2024-12-05,168.57901699001582,169.0004478209138,167.1285418265622,167.6871795654297,245000
2024-12-06,168.17719634246092,169.206240613641,167.44215617480054,167.7361602783203,209200
2024-12-09,168.13799201141873,170.00989796299024,166.8345189382819,167.3833465576172,301700
2024-12-10,167.31474873040528,167.9517775769901,164.8352143640773,167.50096130371094,287000
2024-12-11,168.45163097155876,170.62735133322187,168.3242192079917,168.873046875,418600
2024-12-12,168.24578529682086,169.1572428430024,167.37353826575998,168.2163848876953,178300
2024-12-13,167.50097468369896,167.58917592406897,166.43271978295425,166.8051300048828,153200
2024-12-16,166.74632140113093,167.52055717676743,164.24718169284583,164.28639221191406,236100
2024-12-17,163.5709465562723,163.58075666350993,159.59193117004511,159.83694458007812,511900
2024-12-18,160.42498045548814,161.14041541532916,154.7602716927562,155.05429077148438,468600
2024-12-19,155.34829094522857,158.34726752667316,155.07387713324243,155.70111083984375,404700
2024-12-20,155.55409383567164,156.59294816043814,154.32902695185643,155.0248565673828,730200
2024-12-23,154.03501498464917,155.73050344249347,153.82921211319504,155.35809326171875,194900
2024-12-24,155.61291680874774,156.2401505443862,154.77007007450553,156.1715545654297,100500
2024-12-26,155.26008773522096,156.44595915755792,155.26008773522096,155.6815185546875,164500
2024-12-27,154.6720636172203,156.39695253937097,154.46624578488056,154.99546813964844,145000
2024-12-30,153.86842421673967,154.34865589247661,151.90831690187673,153.6038055419922,221700
2024-12-31,154.14284841492992,155.0935017229513,153.06478333745213,153.96644592285156,317100
2025-01-02,154.5054608732199,154.95629215823405,150.38923829613327,151.0850830078125,239400
2025-01-03,150.9674458911304,152.61394367101406,149.82078500459767,152.39833068847656,250700
2025-01-06,150.92824108328222,151.55547473376282,148.41930648135983,149.86978149414062,369000
2025-01-07,152.8099524460056,152.94715934907052,149.55618233571022,150.36961364746094,361200
2025-01-08,149.8403790620888,151.18304757207693,149.056333270966,151.0752410888672,228600
2025-01-10,149.67378625415643,151.22227272909234,149.5365793490067,150.38922119140625,350800
2025-01-13,149.87959178115395,151.61429086251573,149.87959178115395,150.82044982910156,349300
2025-01-14,151.72208498613796,152.34931864881253,150.41861199327377,151.5260772705078,196900
2025-01-15,153.0059503798729,153.7899961848265,151.09484901146914,152.45712280273438,206100
2025-01-16,152.78054436817854,154.0350116916582,152.2121115255971,153.29017639160156,346300
2025-01-17,153.83899910671454,154.79944734957013,152.5747217171077,152.97654724121094,231900
2025-01-21,153.59398553506873,157.0633683410248,153.59398553506873,156.64195251464844,270900
2025-01-22,156.16174421991363,157.54362344855716,155.18169057482152,155.8971405029297,280000
2025-01-23,155.29930636956567,156.62236981086585,154.58385644519683,156.4361572265625,149800
2025-01-24,156.46556533744905,157.26921653989086,154.0840420532797,155.1425018310547,329600
2025-01-27,155.09348331003815,155.75011743220608,153.52539155704252,155.29930114746094,317000
2025-01-28,154.42704949078208,157.15159724174742,154.42704949078208,155.2600860595703,204300
2025-01-29,155.61291457845172,155.65212509823508,153.49599514310032,153.97622680664062,265800
2025-01-30,154.67206164041292,155.51489335460406,153.4567898296652,154.9758758544922,274200
2025-01-31,154.75046688049648,156.21075221700386,153.63320630664722,154.0154266357422,834100
2025-02-03,151.49669007178431,153.62340462840817,151.0654640871359,152.86875915527344,364600
2025-02-04,152.97657163323618,155.29930896783935,152.97657163323618,154.55445861816406,302400
2025-02-05,155.56680214959917,156.92315132969566,155.07537302605425,155.6061248779297,262600
2025-02-06,157.1000621504914,157.1000621504914,152.70668448736413,153.76817321777344,446600
2025-02-07,154.91812350431175,155.1933226339648,139.60518908843227,140.72564697265625,1221500
2025-02-10,141.78711035544322,142.12129352206097,138.48470639401995,140.82391357421875,621900
2025-02-11,139.83122949001555,140.6175189886004,137.85567506270266,139.8508758544922,377300
2025-02-12,138.55351384739762,141.03032057107268,137.53133297854282,139.27099609375,423500
2025-02-13,140.3030162479326,141.3153590533059,139.0351356946295,140.3226776123047,665900
2025-02-14,141.22689417596524,142.81911962723777,140.27352054231486,142.3080291748047,512800
2025-02-18,142.30805005152797,144.76519586011813,141.43330674355897,144.3818817138672,489600
2025-02-19,143.63488862497093,144.9617531188217,143.1139750082088,144.5194549560547,331000
2025-02-20,144.45068672182066,144.89296996096067,143.41868249900884,144.1656494140625,283100
2025-02-21,144.50964123842508,144.86347079347803,142.71100891667461,143.8314666748047,451900
2025-02-24,143.67420452994452,144.76517773223307,141.88541040384698,143.11398315429688,353300
2025-02-25,143.3793463686029,145.7873457467646,143.22208547113956,145.177978515625,336700
2025-02-26,144.13615069776068,146.62278077273558,144.10666615119783,144.12632751464844,735600
2025-02-27,143.7233423633532,144.65705460178307,142.86826057620084,143.13363647460938,262800
2025-02-28,143.6545685132905,144.43101994873356,142.1507965581812,144.2344512939453,348700
2025-03-03,144.45066986764067,146.2886098899811,143.19261258000728,144.07717895507812,394100
2025-03-04,143.04517170760187,145.413863500686,142.65203443781988,143.43832397460938,490100
2025-03-05,143.54644673744147,146.2984527664409,143.54644673744147,145.89547729492188,445100
2025-03-06,145.0305485219981,148.9030120941682,144.53911943917907,148.5590057373047,471700
2025-03-07,147.92999453807744,150.7311466390258,146.62279122411667,150.1610870361328,480200
2025-03-10,149.46325521067857,151.36016435752973,147.6646228865031,147.9889678955078,391100
2025-03-11,147.76290385774493,147.9791338698189,144.74553686653798,145.3549041748047,304000
2025-03-12,145.69891784638287,145.69891784638287,143.06484983898105,143.52679443359375,299700
2025-03-13,143.900274240468,144.67672562820923,141.29569098355023,142.27854919433594,238400
2025-03-14,142.74050098258454,144.37204929445636,142.06232638323863,144.14599609375,223600
2025-03-17,143.9985523832392,145.46301652973597,143.3597005392626,145.30575561523438,225200
2025-03-18,144.86348726301168,145.00108682799674,143.28108476706942,143.79217529296875,219900
2025-03-19,143.83145115048603,144.93226242362806,142.9763694002447,144.46047973632812,279600
2025-03-20,143.6250951144372,144.89297578388894,141.2662260821799,142.71102905273438,332800
2025-03-21,141.53158870516717,142.96656835609656,139.91970176702517,142.33753967285156,601900
2025-03-24,143.25157833447938,145.6399164898611,142.42598107068508,145.45318603515625,463800
2025-03-25,145.94461117942933,146.67191660765496,143.4284817335018,144.68655395507812,325200
2025-03-26,144.52930198564368,146.15101202434067,143.79215833219487,146.01341247558594,630400
2025-03-27,145.73820579296662,147.32060801990121,144.50963310116106,146.7898712158203,312700
2025-03-28,146.73089236026235,147.42872827286658,143.2614041546856,144.41134643554688,239800
2025-03-31,144.06736941903299,146.53433831887554,143.59560164078837,145.83651733398438,372500
2025-04-01,146.3279441749535,147.4582251876305,144.85365676856068,146.54417419433594,240000
2025-04-02,145.4630159103769,148.53936692435062,145.4630159103769,147.94964599609375,247600
2025-04-03,144.24427337200635,147.4778854578111,143.9494278906975,146.1215362548828,352900
2025-04-04,142.73068331492644,145.42372045194998,137.63946952988923,137.77706909179688,531600
2025-04-07,134.00289075907227,139.68381026775526,128.6070085425134,132.34185791015625,629900
2025-04-08,135.025053604175,136.9219625810332,129.02961306087627,131.3688201904297,473800
2025-04-09,130.89705451371228,141.94438664080494,129.06895256636582,141.28587341308594,491800
2025-04-10,137.60014014324574,140.9123672890104,135.21180205228458,138.34710693359375,309000
2025-04-11,138.45524319829693,142.22943044846525,137.3446235232159,141.63970947265625,203000
2025-04-14,143.30073173513014,143.89043766986302,141.3251771111253,143.2908935546875,249300
2025-04-15,143.59558776645045,144.02803277300885,141.30552638075724,141.4726104736328,250700
2025-04-16,141.59054573403094,143.32038571345137,140.12609665726538,142.51443481445312,307700
2025-04-17,142.90759701119475,143.26142661441008,138.2980039821999,141.36451721191406,390600
2025-04-21,140.84359973934292,141.58074347664174,138.68131444271188,140.1359405517578,291600
2025-04-22,142.02300391438817,144.30324204095515,141.12859939074895,143.51695251464844,217800
2025-04-23,145.33525421843964,146.760410772761,144.69640231267522,145.51217651367188,537000
2025-04-24,145.39422018085207,149.39446063467332,142.9665739929878,148.8637237548828,424500
2025-04-25,148.26416156627027,150.3773006417577,145.04038795490476,146.5048370361328,220500
2025-04-28,147.23217244152312,148.4410839192939,145.73822366585122,147.13388061523438,235200
2025-04-29,147.1928200180196,149.37476614585432,146.45567646124366,147.72357177734375,359900
2025-04-30,146.51468782594912,147.41891562430362,144.68657086484222,147.3795928955078,556200
2025-05-01,146.34446689472773,148.3949671666266,144.87560983167245,146.1768798828125,445300
2025-05-02,150.82009537284122,150.82994812413264,145.6938367360348,149.84413146972656,431600
2025-05-05,149.28220335297306,151.04682352421423,148.74001624656938,149.3314971923828,267600
2025-05-06,148.11893891054953,149.88354394348798,147.30070935640887,148.77943420410156,312000
2025-05-07,149.72583816830937,150.97781448792617,148.48369955760796,149.24278259277344,318400
2025-05-08,149.63707537476432,152.37765900056235,149.0948883501129,151.184814453125,302500
2025-05-09,151.72702915659627,152.11149701025283,150.77078589758978,151.14540100097656,231600
2025-05-12,153.58036864826659,154.36902497347126,151.52001546847515,153.314208984375,352500
2025-05-13,154.0930052362217,154.0930052362217,151.02711471213084,151.46087646484375,339400
2025-05-14,151.4411368076829,151.4411368076829,148.82872891175197,150.3173065185547,350100
2025-05-15,150.18915951898913,153.2747551350197,150.18915951898913,152.7522735595703,278100
2025-05-16,152.97900445208893,154.92106425191258,152.39737629987306,154.78305053710938,278600
2025-05-19,154.14228486208216,156.09419752688567,154.09299102338977,155.837890625,185400
2025-05-20,157.98696796016725,157.98696796016725,155.6703079013984,156.28150939941406,388100
2025-05-21,154.6352065192766,155.41399508535244,153.61981653246397,154.23101806640625,319800
2025-05-22,154.14229666137166,155.02952565627956,153.35364030902645,154.4281768798828,278900
2025-05-23,152.9198641452087,153.964827320536,152.07206127878644,153.72824096679688,260500
2025-05-27,154.8027705397575,156.1927754755183,154.46759652531446,155.916748046875,352800
2025-05-28,155.91675648544185,156.58710455060864,155.02951252332593,155.1675262451172,364400
2025-05-29,155.59142705479934,156.4195093421778,154.59575775990618,156.08433532714844,232100
2025-05-30,155.9956163554189,156.52795067401013,154.31971618579314,156.15333557128906,335100
2025-06-02,155.30554827866962,156.813861590753,153.05788752213863,154.6844940185547,349600
2025-06-03,153.9648187854225,155.20695724316363,153.78737902995462,154.04368591308594,397800
2025-06-04,154.27045472728327,154.30002802372996,148.15837939391508,148.2766876220703,831900
2025-06-05,149.4300974054119,151.1651293846476,146.9359823542241,150.3271942138672,482400
2025-06-06,152.18050703516937,152.28894746522036,150.05115456510006,151.1355438232422,264700
2025-06-09,150.544055582443,151.007375533086,149.21319719105352,149.44979858398438,388400
2025-06-10,150.001860330608,150.82994268025288,148.7202957176617,150.36660766601562,323500
2025-06-11,150.82994254149838,151.4115707359019,149.4498052933599,149.7652587890625,380800
2025-06-12,149.2624939294629,152.4269567686982,149.2624939294629,152.16079711914062,337200
2025-06-13,150.829935873921,151.53972501083467,148.59212803830783,149.0160369873047,361200
2025-06-16,149.09491396311157,150.7313581523707,148.97660573756926,149.5385284423828,346200
2025-06-17,148.52313648415543,149.11461743433793,147.01483824975645,147.33029174804688,379700
2025-06-18,147.00497623832817,148.59214167031755,147.00497623832817,147.57675170898438,383200
2025-06-20,148.15837561472694,148.6315784305405,146.8768260217442,148.16824340820312,570500
2025-06-23,147.3697197894407,151.75660037829923,147.3697197894407,151.6087188720703,356500
2025-06-24,152.37769051720338,152.37769051720338,151.00739089969923,151.68760681152344,246600
2025-06-25,151.67773528253588,152.33823056724884,150.60319885109388,151.74673461914062,264700
2025-06-26,152.3382342669548,153.37334468009956,150.94822928479945,152.2889404296875,658200
2025-06-27,152.4663887853865,153.89581975146424,152.04247985366143,153.6099395751953,643100
2025-06-30,153.8169678164779,154.2803028366932,152.41711000476906,154.21128845214844,315500
2025-07-01,154.2112909513434,157.53350328229894,153.7479709659874,156.75469970703125,338300
2025-07-02,156.7645627082632,158.2531403852606,156.399800331021,158.04612731933594,293500
2025-07-03,158.32215846518048,159.0713736966319,157.55322268905795,158.7559051513672,235100
2025-07-07,158.66717993630388,160.0670377135844,158.27285931033134,158.6770477294922,313900
2025-07-08,158.61788810431491,160.2740678475626,157.58279268744894,157.7799530029297,342700
2025-07-09,157.66165312376677,157.74052026260657,155.8576218513925,157.46449279785156,252800
2025-07-10,156.93213815728353,158.08554170949643,156.08433532714844,156.08433532714844,361600
2025-07-11,156.31105813418472,156.31105813418472,154.4084395545451,155.66041564941406,292000
2025-07-14,154.91121519337966,156.6856880276844,154.46760074539523,155.32525634765625,276600
2025-07-15,155.50272082835133,155.7590277372234,151.88477559675442,151.97349548339844,254200
2025-07-16,151.73688195391455,153.40291433439845,151.37213464305125,152.78184509277344,261900
2025-07-17,152.5452588316346,154.1915706701163,152.31851019393284,153.81695556640625,397700
2025-07-18,154.6253528670293,154.980247474883,152.7227188453121,154.16201782226562,243100
2025-07-21,154.20143682439874,154.44789098408017,153.03818041103906,153.2451934814453,205900
2025-07-22,153.8958183896831,157.09972209739536,153.0282950337299,156.91241455078125,449900
2025-07-23,157.79966646117234,159.5544187621791,156.88284922392322,159.3671112060547,450500
2025-07-24,159.11996916058192,162.4020082574344,157.96333091025235,159.9701385498047,431900
2025-07-25,160.19750774667867,161.22561221674488,158.94202169024894,159.14962768554688,296300
2025-07-28,159.35722424092228,160.12830639187274,156.35198291982778,156.88580322265625,308500
2025-07-29,157.23180681567746,157.7755224517839,155.4227248360997,157.0044403076172,388200
2025-07-30,156.98466705246165,157.11317068883088,153.1490167817767,154.9976348876953,580700
2025-07-31,153.9991895142297,155.55124919683144,153.40604241980773,155.34364318847656,679700
2025-08-01,155.1755793394096,156.31242693918023,139.47710868616434,139.73414611816406,1012300
2025-08-04,141.4838983520282,141.4838983520282,135.51295211602235,137.53952026367188,839000
2025-08-05,137.74710522774117,139.45733927138946,136.1159735436767,138.61705017089844,540800
2025-08-06,138.70603871474566,139.1508915064958,135.97759518556805,136.95626831054688,515300
2025-08-07,138.2018575966745,139.87254051260254,137.32203237332467,138.88397216796875,564000
2025-08-08,139.08167952516152,140.42613304538742,138.9729364064537,139.1409912109375,428700
2025-08-11,139.71437362843554,140.00105182700324,137.60871811175764,138.27105712890625,349500
2025-08-12,138.61704399688827,139.47709356461323,137.63835597942716,137.885498046875,286100
2025-08-13,138.093132926373,139.82312776063122,137.6581603831194,139.813232421875,729900
2025-08-14,138.58740244327777,138.58740244327777,134.8802710493718,136.758544921875,875800
2025-08-15,136.7783310639517,137.36158282800585,136.2939270940797,137.13421630859375,770500
2025-08-18,137.30227391230105,137.97450831438334,135.77988510875218,136.31370544433594,529500
2025-08-19,136.6893602194093,138.9136391735608,136.6893602194093,137.9942626953125,333100
2025-08-20,138.3105996295714,139.6352775807112,137.6680211600025,139.56607055664062,519200
2025-08-21,139.02237682659523,140.27784781496257,138.6368357597722,139.03225708007812,270400
2025-08-22,139.6451775909557,141.69152157825582,139.57598564145147,139.813232421875,356500
2025-08-25,139.35848463440877,139.99116778923627,137.3714676366746,137.964599609375,245800
2025-08-26,137.48021659858136,138.55775254977684,136.43232140870543,138.11289978027344,442900
2025-08-27,137.49997281529963,138.96306488334525,137.44066112579765,137.84597778320312,729100
2025-08-28,138.56762766903606,138.56762766903606,135.8292890396428,137.30226135253906,320800
2025-08-29,137.57905461233506,138.2710494362034,136.76843641419092,137.67791748046875,370700
2025-09-02,135.84906508939116,136.94637659553402,134.6133546133004,134.85061645507812,310600
2025-09-03,134.524378954303,134.62322673580624,132.90312751096604,133.67420959472656,382300
2025-09-04,134.79130216014153,136.8969425133348,133.49626493537275,136.87718200683594,401800
2025-09-05,137.43077574465525,139.21020178510477,136.0566663464884,137.03533935546875,440800
2025-09-08,137.005687591299,138.3995726215184,136.1060867490136,136.71900939941406,616100
2025-09-09,136.679450849055,137.88550540934673,133.55558641382353,135.48329162597656,637100
2025-09-10,134.57382046722492,135.88861824297987,133.30845412810189,134.69244384765625,685100
2025-09-11,135.18672513791338,136.6992335433112,134.31678014184178,135.53273010253906,477500
2025-09-12,135.05820672958419,135.4832989752159,133.67421703664533,133.68409729003906,261300
2025-09-15,134.41563283006397,134.61334347300513,133.09095492956754,133.30844116210938,298000
2025-09-16,133.2491251648004,133.8719280705481,132.56702565416762,133.66433715820312,474800
2025-09-17,133.8719349467548,135.50308190645822,132.6560000017811,133.11073303222656,377400
2025-09-18,133.35786944137865,133.9608967611341,132.53737095397892,132.9624481201172,254800
2025-09-19,133.12062346030297,133.5555959668464,131.81570594067267,132.90313720703125,877200
2025-09-22,132.58679434770661,133.39742770900972,131.1533731265575,131.2028045654297,402100
2025-09-23,131.48947627590215,132.41873297707602,130.46137178622766,130.51080322265625,319700
2025-09-24,130.49101878119058,131.7860408722646,129.8385600670393,129.99673461914062,353300
2025-09-25,129.99674318999885,131.0050871706818,128.7808082948073,129.32452392578125,388700
2025-09-26,129.82867757462216,130.91609366176084,129.4629121280084,130.77769470214844,274400
2025-09-29,130.88643819323417,131.16323611324975,129.85833378808422,130.7579345703125,540600
2025-09-30,130.20434429084327,132.23089734514227,130.20434429084327,132.13204956054688,310400
2025-10-01,131.8058293753404,132.82405364216999,130.7974853623518,132.6065673828125,310100
2025-10-02,132.13204011531099,132.8536907371308,131.44004533518552,131.6575164794922,398500
2025-10-03,130.95564105191096,132.05295244435536,130.9160898735346,131.6970672607422,402000
2025-10-06,131.37085466398543,131.67730845586786,129.90777764901935,130.37240600585938,447100
2025-10-07,130.59978100603624,130.99520235978133,128.3260705111076,129.09715270996094,438800
2025-10-08,129.68040697400747,130.50092062890886,128.77092577546037,130.10549926757812,361300
2025-10-09,130.19444872342635,131.32141603944422,128.71159619791044,129.11691284179688,554200
2025-10-10,129.4431381350315,130.5008983927555,128.40513838295638,129.43324279785156,426000
2025-10-13,129.49258620457584,130.8370398948493,128.67207258406597,128.73138427734375,311400
2025-10-14,128.55342412283795,129.56176808327064,127.56485575341351,128.31617736816406,337400
2025-10-15,128.31618340743444,128.8994351526004,126.39835826699053,126.6356201171875,438300
2025-10-16,126.97172413317051,128.01960419415852,126.38846487166605,127.6834945678711,352700
2025-10-17,127.68349986264782,128.61275658450555,127.37704606806854,127.86143493652344,339700
2025-10-20,128.12834444492697,128.6028530293001,126.55652438869629,128.51388549804688,240500
2025-10-21,129.11691341640903,130.2636563281568,127.64394113747322,129.07737731933594,311600
2025-10-22,129.15646344187363,130.59978003256464,128.49412438289082,128.57321166992188,357500
2025-10-23,128.73197123448563,130.50805690169727,128.65259098954968,129.75396728515625,378600
2025-10-24,129.73411268037526,129.87302431778892,127.54127703952456,127.87864685058594,489300
2025-10-27,128.1366224648553,128.89071205489756,127.45198112404552,127.7794189453125,521700
2025-10-28,127.74964944095181,128.10685294985234,126.47959588491281,127.10470581054688,413500
2025-10-29,126.29107194406481,126.50936382227088,122.46106236313027,123.34414672851562,651100
2025-10-30,123.07624728804052,124.54474389238906,122.08401698830151,123.39376068115234,702600
2025-10-31,114.39423553008093,117.18240033192052,102.42794018569283,115.108642578125,2758200
2025-11-03,115.18801418737364,115.18801418737364,107.44862223530946,112.24109649658203,1661000
2025-11-04,113.47145606328911,115.0987131260131,111.65567282386979,113.29285430908203,1029100
2025-11-05,113.44168707726934,115.13839990799084,111.8938027289756,114.67205047607422,896900
2025-11-06,114.12632587945619,116.05125508565277,112.91581127124762,115.24755096435547,880300
2025-11-07,115.32692576494694,116.01155949259733,113.7988902652183,115.31700134277344,697200
2025-11-10,115.08879219606841,115.86273063108003,113.11425598749823,115.47576141357422,514000
2025-11-11,116.05125494853503,118.58144524090463,116.05125494853503,117.35107421875,484800
2025-11-12,117.42052991643766,118.74019803055835,116.99387815530137,117.24193572998047,547500
2025-11-13,117.3808436819808,120.93302228660532,117.3808436819808,119.26607513427734,679400
2025-11-14,118.8394216459119,119.75227929014665,117.47014653473461,117.68843841552734,521200
2025-11-17,117.56937122538191,118.56160156840677,116.65652112662708,118.41276550292969,820200
2025-11-18,118.73028226930452,119.1767828797841,117.14270772067383,118.38299560546875,817400
2025-11-19,118.5814455351289,118.5814455351289,116.79542796312874,117.08317565917969,598900
2025-11-20,117.08318073043249,118.68067219177061,116.45807833821543,117.65867614746094,507400
2025-11-21,117.21216086173891,121.29022793939164,117.21216086173891,120.57582092285156,509100
2025-11-24,119.91103668470342,121.44899676039621,119.50422617630296,120.5262222290039,740000
2025-11-25,121.45891525209124,123.11593804438662,121.45891525209124,122.48091125488281,543600
2025-11-26,122.06416725085363,123.55251268958358,122.06416725085363,122.84803009033203,538000
2025-11-28,122.66943052847252,125.10039933060551,122.66943052847252,123.78073120117188,315700
2025-12-01,123.90971816318398,123.9890984046682,122.07409360703122,122.32215118408203,536800
2025-12-02,122.80834273936739,122.8976474041654,119.86142506313116,120.65520477294922,325400
2025-12-03,120.50636459439258,123.29453683156571,120.46668204485655,121.11162567138672,543100
2025-12-04,121.25053931737644,123.11593712141129,120.9826404679227,121.07193756103516,708000
2025-12-05,121.0421717426921,122.55036603254122,119.6828210814482,120.96279907226562,537000
2025-12-08,119.98048683677486,121.15131890116776,118.37307858523162,119.13709259033203,496600
2025-12-09,118.67074319979267,118.91880077653559,114.46368881786525,114.82089233398438,640300
2025-12-10,115.2673979458709,116.88473826129054,114.23547747342825,116.25962829589844,734700
2025-12-11,117.04347933154511,117.74796190032998,116.24969967395411,117.09309387207031,389700
2025-12-12,117.5991381446397,120.69489957224027,116.73590258212603,120.5262222290039,656400
2025-12-15,120.53613763713133,121.508519071394,119.54390735802136,121.37953186035156,588600
2025-12-16,121.71688801826957,122.88772006482098,118.59136108661724,121.87564849853516,644800
2025-12-17,121.16124681536517,123.63189822994175,119.14702044648554,122.66943359375,567300
2025-12-18,122.70911937736454,123.15562755440962,121.08186229106413,121.66728210449219,457100
2025-12-19,122.38168448192317,123.36399795279324,120.31785116207733,120.44683837890625,1300400
2025-12-22,120.44683702770696,122.73888662712453,120.1293236305144,121.78634643554688,527800
2025-12-23,121.91534038479175,122.07409329724082,120.37738038293297,121.2406234741211,311700
2025-12-24,121.57798039532113,122.21300719710743,120.81396637664959,121.79627227783203,198000
2025-12-26,121.41922894554897,122.52060522415447,120.77427771310445,122.29238891601562,306000
2025-12-29,122.33208105068077,123.34415267923492,121.36961639767443,122.25270080566406,400200
2025-12-30,121.8458854019756,123.3342308707125,121.46883303835433,121.78634643554688,289800
2025-12-31,120.57582164498164,122.37176361957204,120.40714431232067,121.01240539550781,314300
2026-01-02,120.79411858954116,122.04433092844077,119.84157837851366,121.58790588378906,295100
2026-01-05,120.81396333104647,123.61205247154165,120.81396333104647,122.04432678222656,435700
2026-01-06,121.2703893294616,121.89549169761267,119.17678277613919,119.62328338623047,777200
2026-01-07,119.73243542753909,121.00248907397176,116.6962129559037,119.50422668457031,478500
2026-01-08,118.98826090452039,122.41146012961788,118.59136725333443,121.48868560791016,330000
2026-01-09,121.13148146291526,123.9990265337246,120.51629592819934,122.88772583007812,429100
2026-01-12,123.0365583546262,124.32646078477775,122.02448676997972,124.15777587890625,477300
2026-01-13,124.07840343065625,124.46537264637453,121.58790323017156,122.54044342041016,351900
2026-01-14,123.14570153346037,126.1720069370604,123.14570153346037,125.86441040039062,611700
2026-01-15,126.15215809530929,126.23153833510459,123.5525120178855,124.13793182373047,381000
2026-01-16,123.03655288156622,124.22722617172847,122.28245576040153,123.74103546142578,363400
2026-01-20,123.92956647771405,124.55466884396232,122.4809111423571,122.85795593261719,275100
2026-01-21,123.34415338455338,124.64398030125511,122.93734287422093,124.0387191772461,421000
2026-01-22,124.07840219082979,125.42783600604635,123.09608874217598,123.5029067993164,369700
2026-01-23,123.37391303470616,125.29884225734148,122.90757114819523,125.0210189819336,429500
2026-01-26,125.43775721229031,126.00332820078921,124.12801347207618,125.36830139160156,315400
2026-01-27,123.9791728132312,125.3186897727715,123.205234391347,123.77080535888672,303100
2026-01-28,123.23499911768216,124.09824219611878,122.29238336925172,122.73888397216797,347800
2026-01-29,123.32430960117436,124.30661551602421,121.63751348474041,122.88772583007812,386000
2026-01-30,121.9550286222896,124.03871071803064,121.70697104969861,123.97917175292969,512700
2026-02-02,123.23499750184895,124.93171793896286,123.23499750184895,123.860107421875,489100
2026-02-03,122.94725978548665,126.93602225021577,122.72896790883826,123.66165924072266,658700
2026-02-04,125.21552867481128,129.90700134775133,124.20949930267037,128.7216796875,589400
2026-02-05,127.16782066467043,128.5722782146923,121.48028130551128,123.49234008789062,2144200
2026-02-06,127.02836268310486,135.45509216979158,127.02836268310486,133.7816925048828,1045700
2026-02-09,133.05457384055362,139.02101804829903,132.72587004959905,137.9253387451172,1043400
2026-02-10,137.26793457923543,140.37565748193367,137.26793457923543,139.61865234375,622100
2026-02-11,138.48313331396238,139.99715874839507,138.05483198642824,139.4592742919922,584300
2026-02-12,139.60869173387061,141.44145054391814,138.84171623230802,139.95730590820312,572700
2026-02-13,139.9573151020267,142.3677944950846,139.85771755943315,142.01918029785156,471900
2026-02-17,138.71222079286514,143.055071512211,138.71222079286514,141.0928192138672,614700
2026-02-18,140.9135352437976,142.54708376856578,140.2860084572567,141.1625518798828,582000
2026-02-19,141.0928230678908,142.7562676088946,140.4752666602554,142.59689331054688,525500
2026-02-20,142.55704525117903,144.56910401516237,141.44145553591065,144.47946166992188,664500
2026-02-23,142.9255958993581,145.6647789342487,142.5670113304762,145.14682006835938,513500
2026-02-24,145.49544486452967,146.33213709933392,143.28417595914058,143.57302856445312,429800
2026-02-25,141.8498473766502,143.0949306198296,139.87762457633954,142.1187744140625,348900
2026-02-26,142.95547535989397,143.35389589996325,140.44538340090327,141.23226928710938,331300
2026-02-27,140.97329664666827,143.44353741820976,140.44538259466083,143.1447296142578,344600
2026-03-02,142.43751420451355,142.78614357053576,141.06293752550724,142.1088104248047,335000
2026-03-03,140.08679425249235,140.76412738697488,136.38142559574294,139.2102508544922,347300
2026-03-04,138.79191754238275,138.9612470419286,135.47501391314069,136.50096130371094,389000
2026-03-05,135.46505150535157,135.80371048641027,133.88130933030985,134.20004272460938,452300
2026-03-06,133.47291651624107,133.47291651624107,130.48471689274314,131.5604705810547,398500
2026-03-09,130.45484354440993,133.45299853256722,127.02837201579013,133.22390747070312,545700
2026-03-10,132.82547764917305,133.60240832546756,130.88313575966777,131.6102752685547,503100
2026-03-11,131.2815812945587,132.75575561111177,129.5284943463408,131.50071716308594,563800
2026-03-12,130.7536581494707,132.26766833775483,128.13399830193273,128.35313415527344,620600
2026-03-13,129.6380511924889,129.6380511924889,126.55025410703881,128.14395141601562,660600
2026-03-16,128.97069022910543,130.8931065380538,125.50438295551326,128.54238891601562,370700
2026-03-17,129.45876833048925,130.50464122844355,127.73557748644285,128.99061584472656,276700
2026-03-18,123.89075860801685,126.08210964583039,120.94240244020646,123.73139190673828,910500
2026-03-19,122.52615308632394,124.32903117833895,120.97228404186016,123.48237609863281,518500
2026-03-20,123.77123411184346,123.77123411184346,119.83676660084556,120.58381652832031,1481500
2026-03-23,123.02418368013113,125.84304628604973,122.50622481021608,123.65170288085938,455200
2026-03-24,122.67556308818467,124.72745780194329,122.38670286935901,123.66166687011719,405000
2026-03-25,124.94659356774676,126.07214606142944,123.22339504970952,125.3250961303711,337200
2026-03-26,124.72746089618293,126.83911722505529,123.6317891558115,124.19954681396484,442100
2026-03-27,123.45249678230496,123.72143142045898,121.28107129127055,121.51016235351562,381400
2026-03-30,122.07791483255923,123.45249154525831,120.62365857080745,122.87477111816406,562000
2026-03-31,123.90072145898677,126.46061226934556,123.1038651540704,125.52430725097656,557800
2026-04-01,126.83910993884153,128.13399948450484,125.83308820196113,126.25143432617188,380200
2026-04-02,124.64777023751822,126.5900970135599,123.76127159620845,125.51435089111328,297500
2026-04-06,124.0999305830527,125.6936431780852,124.0999305830527,125.51435089111328,461100
2026-04-07,124.82706080661809,126.6697824199569,124.30910953992999,125.11592102050781,376900
2026-04-08,130.86323514521675,132.1481543754263,127.64592907491694,131.50071716308594,645200
2026-04-09,130.70386349661462,131.91906599267529,126.83912013545304,130.88314819335938,424100
2026-04-10,131.7298075164679,132.178034445579,130.3353203595067,130.98275756835938,407400
2026-04-13,130.28551770076956,131.89914077103793,127.07818194963497,131.59036254882812,396300
2026-04-14,130.71381054193466,132.197955189354,130.45483870763653,130.4946746826172,315500
2026-04-15,130.29547082253353,130.51460669263554,128.0941721257409,129.14002990722656,407100
2026-04-16,126.40084558822308,129.81735412824597,126.40084558822308,127.78536987304688,393800
2026-04-17,129.14002424182965,131.7796097617975,129.14002424182965,130.11618041992188,401100
2026-04-20,130.05641512792803,131.47082778766443,129.1499909308814,130.405029296875,403600
2026-04-21,130.18589466096142,131.72980084865796,126.1916732788086,126.1916732788086,310200
2026-04-22,126.77935427393615,126.77935427393615,122.47634691200882,124.06009674072266,458900
2026-04-23,124.88682675562279,126.93872910578784,123.95052932532681,124.44856262207031,440800
2026-04-24,123.9206456254592,123.9206456254592,122.08787918491913,123.5919418334961,440900
2026-04-27,123.55209914216728,125.73348737793874,123.05406585359005,124.23938751220703,359700
2026-04-28,125.62392082821759,126.15183490401432,123.23335949687649,125.2752914428711,354300
2026-04-29,124.64776713863216,125.4047798425139,122.30701227202618,122.41658020019531,448400
2026-04-30,122.94449532386469,125.58407321741664,121.40058912214994,123.19351196289062,764800
2026-05-01,126.70962950793603,127.97463072857443,117.4362520229959,118.55184173583984,989400
2026-05-04,118.21317963909578,121.27110367417347,116.9979772200526,120.12562561035156,739600
2026-05-05,120.42445055667139,123.22339520339091,120.34476340674007,121.55000305175781,628600
2026-05-06,123.18000030517578,126.38999938964844,121.66999816894531,122.62999725341797,917000
2026-05-07,122.94000244140625,126.47000122070312,122.56999969482422,125.11000061035156,749700
2026-05-08,125.2300033569336,125.86000061035156,120.38999938964844,120.98999786376953,794900
2026-05-11,121.22000122070312,121.22000122070312,119.44000244140625,119.95999908447266,706100
2026-05-12,120.44999694824219,120.86000061035156,117.13999938964844,118.05000305175781,696600
2026-05-13,118.0,118.75,116.43000030517578,117.87999725341797,679500
2026-05-14,118.7300033569336,120.16000366210938,117.04000091552734,117.98999786376953,531000
2026-05-15,117.91000366210938,117.91999816894531,114.47000122070312,114.66999816894531,447000
2026-05-18,115.5999984741211,117.31999969482422,115.16999816894531,115.80999755859375,433100
2026-05-19,115.88999938964844,116.04000091552734,112.44999694824219,113.61000061035156,575800
2026-05-20,114.06999969482422,115.44999694824219,111.55000305175781,115.26000213623047,562600
2026-05-21,116.5,116.5,112.7699966430664,115.51000213623047,345600
2026-05-22,115.80000305175781,116.80000305175781,114.70999908447266,116.2300033569336,405800
2026-05-26,116.19999694824219,116.97000122070312,115.37000274658203,116.37999725341797,344500
2026-05-27,116.94000244140625,118.11000061035156,114.7300033569336,115.30000305175781,464000
2026-05-28,114.80999755859375,116.33999633789062,113.3499984741211,115.98999786376953,510100
2026-05-29,115.05999755859375,117.26000213623047,113.75,115.8499984741211,559600
2026-06-01,114.69000244140625,115.12999725341797,112.02999877929688,112.37999725341797,706800
2026-06-02,111.94999694824219,113.05000305175781,111.23999786376953,112.18000030517578,452400
2026-06-03,111.69000244140625,114.0199966430664,111.69000244140625,112.52999877929688,372600
2026-06-04,114.94999694824219,115.76000213623047,111.54000091552734,112.55000305175781,337600
2026-06-05,113.08999633789062,114.58999633789062,111.9800033569336,113.36000061035156,466300
2026-06-08,112.26000213623047,112.63999938964844,110.94999694824219,111.94000244140625,422200
2026-06-09,113.27999877929688,116.1500015258789,112.66999816894531,115.9000015258789,444400
2026-06-10,116.1500015258789,116.55000305175781,113.37000274658203,114.66999816894531,496800
2026-06-11,115.11000061035156,117.01000213623047,114.26000213623047,116.58000183105469,395200
2026-06-12,117.9000015258789,118.47000122070312,116.37999725341797,117.72000122070312,342600
2026-06-15,118.69999694824219,120.73999786376953,117.55999755859375,118.08000183105469,576100
2026-06-16,118.5,121.05000305175781,113.7699966430664,120.6500015258789,474700
2026-06-17,121.62000274658203,122.3499984741211,119.45999908447266,119.98999786376953,680500
2026-06-18,120.45999908447266,122.55000305175781,119.11000061035156,120.31999969482422,750600
2026-06-22,119.55999755859375,121.01000213623047,118.87999725341797,120.0,468400
2026-06-23,120.36000061035156,122.58000183105469,119.08000183105469,120.61000061035156,514100
2026-06-24,121.9800033569336,125.05000305175781,121.7699966430664,124.27999877929688,404900
2026-06-25,125.7300033569336,128.13999938964844,124.9000015258789,126.43000030517578,363500
2026-06-26,125.94000244140625,127.12000274658203,124.76000213623047,125.9800033569336,727400
2026-06-29,125.61000061035156,126.05000305175781,123.91999816894531,125.29000091552734,446600
2026-06-30,124.5999984741211,126.30999755859375,123.94000244140625,125.19999694824219,329300
2026-07-01,125.12000274658203,126.83999633789062,124.0999984741211,125.25,405600
2026-07-02,126.2699966430664,128.22999572753906,125.41000366210938,126.9800033569336,468400
2026-07-06,126.43000030517578,127.05000305175781,124.18000030517578,126.01000213623047,431400
2026-07-07,126.62999725341797,128.71499633789062,126.16000366210938,127.69000244140625,387596
