Date,Open,High,Low,Close,Volume
2023-09-25,117.34077068831786,119.39921139699219,116.84059192021189,119.3126449584961,258800
2023-09-26,118.82208002776298,119.48578541206082,118.53351789357484,118.88941192626953,547000
2023-09-27,119.31263264936807,119.70700305954179,118.18722503326468,118.81244659423828,362400
2023-09-28,119.13950746199725,120.85166777851079,118.56237584297187,120.68814849853516,219300
2023-09-29,121.66926377216642,121.99630964992629,120.03405639924574,120.27452850341797,330900
2023-10-02,119.783963084746,120.69776148170621,119.26454246027548,120.28414916992188,244100
2023-10-03,119.29339878482428,120.53423572898005,117.82171067436374,118.1872329711914,236300
2023-10-04,118.84132265546667,119.90901943753225,117.66781755527735,119.49540710449219,208200
2023-10-05,119.2356870928497,120.16872002997181,118.11990034706665,119.03369140625,466700
2023-10-06,118.89902522929134,121.86164325055658,118.68740860796868,121.59231567382812,491700
2023-10-09,121.02480176411956,122.3714470315645,120.89975891033677,122.10211944580078,275700
2023-10-10,122.39067273660791,123.70846243025989,121.68849834421273,121.71735382080078,322000
2023-10-11,122.66962432861328,122.83314359247812,121.82316519334888,122.66962432861328,212900
2023-10-12,122.37143953710256,122.54457973715071,120.29375713652479,120.6400375366211,189300
2023-10-13,121.19794575056598,121.84240925638196,120.62081414328858,121.1690902709961,324900
2023-10-16,122.50611121132462,122.57344310797819,121.36146162958764,121.8808822631836,275200
2023-10-17,121.20755913507936,123.44875352595633,121.20755913507936,122.62153625488281,314400
2023-10-18,122.03480071268835,122.80430713521261,121.46728266264812,121.94822692871094,287300
2023-10-19,121.27488424535677,122.61190845722675,120.61117893923942,120.93822479248047,443900
2023-10-20,121.13061711466817,121.65965871645427,117.2830631776834,117.56201171875,446500
2023-10-23,117.08106243237853,118.46618413837787,116.59049727173269,116.86944580078125,379000
2023-10-24,117.47540598721643,119.05290208523051,117.08103563202529,118.63928985595703,312100
2023-10-25,118.15677276144453,119.4596516517281,117.63561973271062,118.09886932373047,431300
2023-10-26,117.02761412299786,121.0134603739244,117.02761412299786,119.12187194824219,576000
2023-10-27,119.16047518784606,119.51755620789429,116.15902425320523,116.94075012207031,364000
2023-10-30,117.66456388692826,118.05060396077593,116.63191092316939,117.90583801269531,283100
2023-10-31,118.23397832287583,118.60071235470951,117.577712385893,118.00234985351562,422900
2023-11-01,117.84791875362913,119.1218456720872,117.36537056689347,118.63929748535156,360500
2023-11-02,119.40175264455395,119.95185741255717,118.68758322153812,119.26663970947266,384300
2023-11-03,120.08695886542009,121.57320837230809,120.08695886542009,120.97484588623047,278000
2023-11-06,120.89763669523624,121.3415875698335,120.39578974927271,120.8204345703125,173500
2023-11-07,120.27033814314946,120.62741916445184,119.8360402653971,120.2027816772461,205000
2023-11-08,120.52125543592591,121.10996492498091,120.06766623895945,120.75288391113281,175800
2023-11-09,121.30298351927328,121.30298351927328,119.73952451177246,120.04835510253906,118600
2023-11-10,119.90360110009986,121.399503795025,119.56581875827565,121.33194732666016,195600
2023-11-13,121.01347066235381,121.10033319132401,120.02907530034533,120.18348693847656,183100
2023-11-14,121.55391115797988,123.39724915782807,120.936249936579,123.3875961303711,267400
2023-11-15,123.3586407628021,124.30443862184565,122.90504420607215,123.25247955322266,388600
2023-11-16,123.1945687845745,124.13070619763076,122.41283561845891,123.09806060791016,217000
2023-11-17,124.07280612990299,124.57466044313415,123.1559673820683,123.46479797363281,162700
2023-11-20,123.00155853990697,123.19458227747852,122.01716324915157,122.8760986328125,213900
2023-11-21,123.0111977669835,123.82188264762816,122.76027061784326,123.44549560546875,160600
2023-11-22,123.96665977430045,124.69048225028065,122.914707976832,124.08248138427734,174800
2023-11-24,124.46850623760841,124.46850623760841,123.6288769312162,124.04386138916016,65900
2023-11-27,123.35864729016578,123.82189689857947,122.42250240875883,122.56726837158203,367500
2023-11-28,122.56726027052797,122.57691329757223,121.10996243713889,121.22577667236328,218000
2023-11-29,121.25472870985266,121.98820414200175,120.55985802288006,120.99415588378906,331800
2023-11-30,121.07135636226576,122.69271882208767,120.45369517405763,122.46109771728516,301000
2023-12-01,122.0075133766965,124.05351350614691,122.0075133766965,123.6288833618164,218300
2023-12-04,123.00154595197841,124.38164160429274,122.4610942682931,123.93769073486328,192000
2023-12-05,123.77362656816942,124.19827138588248,121.48634520426313,121.5925064086914,178000
2023-12-06,121.9785653558879,122.85680684420771,121.48636400130093,121.95926666259766,179500
2023-12-07,121.83379146528237,122.6734281493362,121.59251731777178,122.07506561279297,254000
2023-12-08,121.94960678177719,123.04981631507553,121.23543736051924,122.8760986328125,265800
2023-12-11,122.81819302140134,123.22353181848027,121.93029857047753,123.11737060546875,338000
2023-12-12,123.19458223267412,123.62888011972512,122.25843735432503,123.030517578125,210300
2023-12-13,122.74097856816276,124.4878083169758,122.74097856816276,124.10176086425781,425000
2023-12-14,124.57467068526118,125.47220345317041,122.45145375097674,122.95330810546875,412900
2023-12-15,122.72167704235878,124.09211233389199,121.57320982713335,121.5828628540039,713000
2023-12-18,122.28738762368339,122.76993591705903,121.48635568953519,122.61552429199219,240500
2023-12-19,123.25248124676398,123.65782739941075,121.63111872548421,121.82414245605469,659100
2023-12-20,121.62145477599356,122.5093491306757,121.08100310513626,121.18716430664062,346400
2023-12-21,121.83378081634912,121.83378081634912,120.49229726249135,121.51530456542969,421900
2023-12-22,121.98820682835046,122.60586803857178,121.71798096926643,121.86273956298828,312200
2023-12-26,121.7372726533808,122.44179634238442,121.20646662994645,121.43809509277344,274700
2023-12-27,121.7179801620288,122.05576248364365,120.66602108831127,120.90729522705078,283100
2023-12-28,120.61777069727657,121.40914957794178,120.05801292816882,120.83008575439453,343600
2023-12-29,120.82043808829643,120.98450273280184,119.24732601714967,119.30523681640625,313500
2024-01-02,118.3304992303417,119.7684911575443,118.02166860108136,118.59107208251953,313100
2024-01-03,120.78183530676975,122.8181896264616,118.8516421971549,120.98450469970703,531700
2024-01-04,120.81079207973853,121.52496149850643,119.79743770955358,119.8843002319336,353300
2024-01-05,119.45965144487354,120.02906224611816,118.69722427618132,119.864990234375,423000
2024-01-08,119.73953213187556,120.79149123065565,118.09887089459961,120.00975799560547,352400
2024-01-09,119.39209643843853,120.28963654792885,118.6779270344352,120.27998352050781,250300
2024-01-10,120.11591087750575,121.04240264450908,119.89394280330917,120.8204345703125,279600
2024-01-11,121.0038017297732,122.53830905966294,120.57916425839741,122.412841796875,323100
2024-01-12,123.4261986038641,123.50340809589281,121.52495720049569,122.01715850830078,231700
2024-01-16,121.48634817990717,122.39354127156845,121.12926717726768,122.3838882446289,257500
2024-01-17,121.54426685222283,122.8278397204519,121.49600907750106,122.2680892944336,336900
2024-01-18,122.87607788237084,125.47218228714773,121.90132842077576,124.63255310058594,444200
2024-01-19,125.18269023740162,126.87160933829033,124.0535142223177,126.2346420288086,418000
2024-01-22,126.33113669376287,127.20937811767521,126.00300739017096,126.61102294921875,266200
2024-01-23,127.1997241248171,127.24798189599859,125.78103106406539,127.22867584228516,217800
2024-01-24,127.50854252440655,127.6726071592471,125.98368831528413,126.21531677246094,294400
2024-01-25,127.42170423136226,127.75949393532106,125.82930071545499,126.66893005371094,332300
2024-01-26,127.0838891387504,127.96213041262492,126.81366332005095,127.10319519042969,219900
2024-01-29,126.47589747660612,127.96213958599905,125.93544580046323,127.6340103149414,187800
2024-01-30,127.42168790985616,128.44468782915573,127.0356552058123,127.6340103149414,228400
2024-01-31,128.14709571545094,128.53434368250345,125.03951017935186,125.73654174804688,537500
2024-02-01,126.29805931683907,126.92731704694036,125.47517018793579,126.33677673339844,298800
2024-02-02,125.81399083086278,126.54006414764015,124.58450254495992,125.94952392578125,344800
2024-02-05,125.01049634153883,127.25647596394337,123.96494875503913,126.48199462890625,319500
2024-02-06,126.31742086735336,127.20806924035398,125.1750723363318,126.94669342041016,369700
2024-02-07,127.21772598525038,128.19549937263756,125.24279834775675,127.59528350830078,393000
2024-02-08,127.4403846693048,130.53829445292226,127.34356898744214,127.90506744384766,620700
2024-02-09,127.89543870730267,134.76894102535888,127.3145739470146,134.52691650390625,650900
2024-02-12,134.7204793143427,135.9886849362891,133.12310924807548,133.2199249267578,491300
2024-02-13,132.32930021222504,132.9488822581375,130.67384635486445,131.59353637695312,275900
2024-02-14,131.91300327103065,133.0747324694231,130.8577801954245,132.79397583007812,335000
2024-02-15,132.7939713432345,133.4135533345092,130.27692596643098,130.73191833496094,471400
2024-02-16,131.05141105332157,133.59751331676136,130.73193696622823,133.11346435546875,453900
2024-02-20,132.76492924425213,135.66922259050702,132.580988302136,135.23358154296875,373000
2024-02-21,134.6430432067918,135.6401827546635,134.5559179504535,135.53369140625,276300
2024-02-22,135.98871968077944,137.87650772141765,135.6014864111109,136.95681762695312,295700
2024-02-23,137.44086687732337,137.5183164858138,136.1145774154304,136.85032653808594,190300
2024-02-26,136.9858566979064,137.52798917361454,136.30819110327124,137.3924560546875,199200
2024-02-27,137.39243933350093,137.64413944601768,135.3400767046714,135.83380126953125,244600
2024-02-28,135.19488484214043,136.7341719463713,134.88510115200842,135.93064880371094,189600
2024-02-29,136.14360929042408,137.1117071682836,135.36912803373622,135.97903442382812,250600
2024-03-01,135.41754419742617,136.29850209365307,135.1077457669271,135.814453125,151400
2024-03-04,136.20167928350625,137.58605202090553,136.07582184483363,137.43116760253906,260300
2024-03-05,137.73127267874108,138.64128693816335,137.21818204685397,137.97329711914062,190200
2024-03-06,138.3702046969849,139.05756060105247,137.93456366268825,138.50575256347656,184000
2024-03-07,139.89013059583016,140.5097125902881,139.25118250942043,140.03533935546875,250100
2024-03-08,140.09342907633237,140.44194485018238,138.40893370739082,138.5251007080078,185200
2024-03-11,138.23467236717613,138.80586127112414,137.4505155467045,138.186279296875,226700
2024-03-12,138.24436356711726,138.2927714096869,136.9664674288769,137.86680603027344,242200
2024-03-13,138.43798895737592,138.43798895737592,136.4340193693208,136.6566925048828,336800
2024-03-14,136.8502801365008,137.1019801997494,135.88218251662514,136.43399047851562,235200
2024-03-15,135.5724352312238,137.86683749913811,135.2820176535157,136.50181579589844,599500
2024-03-18,136.43402821831805,136.79223448171572,134.49783244298447,134.8173065185547,299700
2024-03-19,134.44943456936542,135.84349784138894,134.44943456936542,135.059326171875,253000
2024-03-20,135.17550421499809,135.6014696220955,134.70113096218498,135.50465393066406,220000
2024-03-21,135.83379094940284,137.08264530093032,134.8560175541442,136.63731384277344,255800
2024-03-22,137.47958214730536,137.9055476013454,136.55021640394727,137.07298278808594,276000
2024-03-25,136.69543011458305,139.45451523192946,136.66638835730595,138.3992919921875,316300
2024-03-26,138.27343080301986,139.7062116207552,138.07012373555634,138.63162231445312,314200
2024-03-27,139.08659141008025,140.5193718351404,139.08659141008025,140.04501342773438,218200
2024-03-28,140.1999296948087,140.71302034415112,139.06724227584522,139.29959106445312,247800
2024-04-01,139.20278768938965,139.20278768938965,137.58606600215256,137.75064086914062,204400
2024-04-02,137.3149905478121,137.3149905478121,135.91125167032422,136.1436004638672,202600
2024-04-03,136.1823130834933,136.68572806578385,135.40783190427706,136.3856201171875,258700
2024-04-04,137.30530909164867,138.19595727130007,136.47274441493107,137.2278594970703,403600
2024-04-05,136.8696707293308,138.20563563898364,136.45338099681578,137.20849609375,288300
2024-04-08,137.15041706598697,137.83777302127123,135.91125303201014,136.0274200439453,312500
2024-04-09,135.94029261944223,136.59860681125565,134.91411130502746,135.83380126953125,242600
2024-04-10,134.5462509693493,135.74669776324401,134.0331602299272,134.95285034179688,200700
2024-04-11,134.8173099688125,135.57242515875745,134.03315302325444,134.69146728515625,265300
2024-04-12,133.76208470665995,134.51719988484666,131.62259662579817,132.82302856445312,299200
2024-04-15,134.18804610778258,135.3497605952717,133.4329309523146,133.79112243652344,319600
2024-04-16,133.39420463004214,134.94316719612974,132.97792961895718,134.16868591308594,281700
2024-04-17,134.44943883100882,135.03028869809586,133.93634813434798,133.9847412109375,565400
2024-04-18,133.9750266497495,134.9915320870065,133.8104518299265,134.67205810546875,246600
2024-04-19,134.62369389699214,135.4562586960129,134.34295200090463,134.89476013183594,276600
2024-04-22,135.09803598219477,136.64698342744765,134.80760371996035,135.84347534179688,298800
2024-04-23,135.31102694214403,136.656682226633,135.069002504128,135.67889404296875,417200
2024-04-24,135.88280137491373,136.80518972389316,135.58181289617383,135.94105529785156,559200
2024-04-25,135.7760094089554,137.14503597865468,134.8827479436081,136.1061248779297,694400
2024-04-26,137.87324676430742,144.194050138077,137.7761470024205,139.1645965576172,489500
2024-04-29,140.68896186966708,143.71829961506626,140.17436572617285,142.12596130371094,676700
2024-04-30,141.50455876401378,141.85409715843193,139.87337465161463,140.18408203125,585100
2024-05-01,140.77634869572992,142.9318328954004,140.37826043918207,141.15501403808594,359600
2024-05-02,141.52398284049588,142.46579432024046,141.0676405847291,141.67933654785156,356500
2024-05-03,142.8347262098354,142.85414912308485,140.63069223929037,142.54344177246094,303300
2024-05-06,143.46583362092616,144.74747925029178,142.88327954740367,144.70863342285156,260200
2024-05-07,144.00958866873592,146.00971937546657,144.00958866873592,145.368896484375,392900
2024-05-08,145.36890993029817,146.48548325246907,145.1358793623441,146.40780639648438,223500
2024-05-09,146.6116820419674,147.3204628465896,144.3105630316223,144.7474822998047,299100
2024-05-10,144.6212448665183,144.66979474057337,143.7862374049322,144.17462158203125,186300
2024-05-13,144.21346995257653,145.13585840929454,142.59200470826642,143.57264709472656,167500
2024-05-14,143.9901297523649,143.9998338002847,143.18424931481326,143.60174560546875,137600
2024-05-15,143.66007808835863,144.0290246724551,142.50465881355174,142.9998321533203,211100
2024-05-16,143.08718529410942,143.6017814537863,142.17450084023903,143.2522430419922,235500
2024-05-17,143.55324035133813,143.8639329180127,142.85416355714113,143.3784637451172,169500
2024-05-20,143.30076094395258,144.0969373546569,142.76674198742418,143.86390686035156,163400
2024-05-21,143.64060931065208,144.35909414501361,142.81530585917272,144.27171325683594,280400
2024-05-22,143.7668346921676,144.50474243328088,143.18426581237048,144.4658966064453,283300
2024-05-23,144.33971700612148,144.62128264464536,143.27167875928185,143.42703247070312,171700
2024-05-24,144.1649049429506,144.50473925123936,143.07745886097342,143.78623962402344,162300
2024-05-28,143.32990795502417,143.48526163962768,141.58223085693479,142.4463653564453,318400
2024-05-29,141.41716447863772,142.4366527072403,140.31029535438608,140.63070678710938,229700
2024-05-30,140.91228668269574,142.70851373087208,140.78605995699684,141.89292907714844,328100
2024-05-31,141.8443657942061,143.5338036875814,141.6793080690731,143.3978729248047,358900
2024-06-03,144.18431769135844,144.18431769135844,142.02883377700786,143.8542022705078,266200
2024-06-04,143.3590315880983,144.07753125118836,142.43664318212836,143.8833465576172,287900
2024-06-05,143.42704632873537,143.8930926926836,142.80564623835542,143.62123107910156,229200
2024-06-06,143.70858196047192,143.70858196047192,141.17443223714181,141.71817016601562,197600
2024-06-07,141.53369124615435,142.07741436636817,141.22298385440706,141.32008361816406,179100
2024-06-10,140.62099421122554,141.57250958640344,139.80540960393014,141.35890197753906,125800
2024-06-11,140.6986800796317,141.50456068926422,140.15495697321543,141.2715301513672,147700
2024-06-12,141.9900224631697,142.05798044025738,139.88308812796836,141.59193420410156,221300
2024-06-13,141.6501881317032,142.27158805169188,140.805476550794,141.59193420410156,232400
2024-06-14,140.8734351702916,141.15501557544053,139.50440860403918,140.54331970214844,141500
2024-06-17,140.65981624752195,142.4172120684738,140.3685466316063,142.077392578125,303800
2024-06-18,142.22303735719075,143.39787921333664,142.2133333077604,142.42694091796875,219900
2024-06-20,142.39781323867697,143.24252481049206,141.43657899757036,141.572509765625,199900
2024-06-21,141.63076047927734,142.86385622851674,141.0870374193948,142.58229064941406,444100
2024-06-24,142.94153910100914,143.92218146002028,142.4075200677485,142.45606994628906,182900
2024-06-25,142.52401968431698,142.53373854866894,140.30057760299235,140.65011596679688,194500
2024-06-26,140.05786957330074,140.58216981066397,138.80536550800005,139.5335693359375,192400
2024-06-27,139.6888885498047,139.69860741462887,138.135396158235,139.6888885498047,377300
2024-06-28,139.60150714084187,140.12582211775148,136.01874245488284,136.7178192138672,435100
2024-07-01,137.27127014880173,137.36835509564582,134.36815911737452,134.5137939453125,306400
2024-07-02,134.4555328904598,136.41683242305885,133.75645612270853,136.31973266601562,259400
2024-07-03,136.78577507852356,137.29065226337735,136.48478661419202,137.1158905029297,143300
2024-07-05,136.89260200916505,137.32952129947634,135.66921021788147,136.80520629882812,207000
2024-07-08,137.53340696834337,138.35871046567937,137.38777214662196,137.39747619628906,249300
2024-07-09,136.76637614080624,137.1644644187289,135.6886339831031,135.97019958496094,238400
2024-07-10,136.65953783437934,137.51396810490974,136.48477608741067,137.183837890625,142000
2024-07-11,137.09646742302462,139.13544351779265,136.6595482071003,137.96060180664062,244500
2024-07-12,139.24228498373407,141.26183871311542,139.24228498373407,140.3879852294922,263900
2024-07-15,140.5530072875592,141.4559875097571,138.98009215801966,139.26165771484375,319900
2024-07-16,139.66948303288666,141.07734063154754,139.66948303288666,140.3588409423828,178800
2024-07-17,140.145223926781,141.53367333298914,140.145223926781,140.65011596679688,242300
2024-07-18,140.4074042597719,142.97068107315562,140.39770020918226,142.02886962890625,434200
2024-07-19,142.32986505813662,142.32986505813662,140.45596094483025,141.69876098632812,251200
2024-07-22,141.74729152284237,143.2716569904321,141.0287918281976,142.91241455078125,235700
2024-07-23,143.57265645199828,144.1940564353192,141.43659493529168,141.79583740234375,234500
2024-07-24,141.8249684790197,142.36869157146538,139.718019272778,139.9510498046875,250600
2024-07-25,139.1134168154453,140.30167233708127,137.54531009340042,137.80828857421875,558100
2024-07-26,139.40560564885226,147.35326223129871,138.64590329069,142.84375,562800
2024-07-29,142.76584597383152,144.4897929937424,141.39253199421196,143.9541015625,390900
2024-07-30,143.5450338076538,144.05149220142636,141.62629393482098,141.9574432373047,411000
2024-07-31,142.687920277237,144.9767768202367,141.62628675803276,143.15542602539062,280600
2024-08-01,143.0580564170797,145.64882955447564,141.64577481833908,143.2041473388672,335300
2024-08-02,142.76584278576115,143.17491218000953,140.00948044813856,141.8990020751953,213500
2024-08-05,139.69779019041522,139.69779019041522,135.85057640594786,137.01934814453125,448500
2024-08-06,137.65246713764915,142.28860227483594,137.43819054803106,141.15878295898438,476000
2024-08-07,142.21068163315522,143.42815549610452,139.7367812828085,139.8634033203125,353600
2024-08-08,140.70101663202263,142.356778003838,140.70101663202263,141.7723846435547,268600
2024-08-09,141.62626982744487,141.62626982744487,139.73674845812454,140.20425415039062,263200
2024-08-12,140.22376060481798,140.42828787630694,139.05498875394557,139.5614471435547,221100
2024-08-13,139.7757349256636,141.51916583268488,139.37641479063032,140.6133575439453,212000
2024-08-14,140.37960449405662,141.04190311093822,139.75625849980418,140.15557861328125,115700
2024-08-15,141.2269842783919,143.5060920440662,141.2269842783919,143.18467712402344,277500
2024-08-16,142.30807861002003,143.01907915033655,141.8210890883735,142.90220642089844,250600
2024-08-19,142.51264091252753,143.8859402629572,142.12304032304087,143.14572143554688,191200
2024-08-20,143.1554262192904,144.45082004519588,143.1554262192904,144.2560272216797,387200
2024-08-21,144.31447092085256,145.6780504782827,143.6229541329459,145.4442901611328,267300
2024-08-22,145.67805355296156,146.48644308563473,144.8014634914536,145.11314392089844,200400
2024-08-23,145.76573379784242,146.61309096444847,145.55145718025918,146.5254364013672,221400
2024-08-26,146.75915922191393,148.6973829226023,146.23321706296485,146.25270080566406,235500
2024-08-27,146.10658758715397,147.59677430031587,145.94101293699603,147.265625,208300
2024-08-28,147.00265865265132,148.01560524076524,147.00265865265132,147.59678649902344,249000
2024-08-29,148.5805139173331,148.93114698600922,147.27538549682706,148.31753540039062,187100
2024-08-30,148.23959762370004,149.4473369078232,147.69417177336692,149.20384216308594,178500
2024-09-03,148.15194689459446,148.41492538696468,145.83387210929124,146.13580322265625,362400
2024-09-04,145.7072750829975,146.97343598691867,145.7072750829975,146.807861328125,175800
2024-09-05,147.14874398418533,147.8110425475091,146.0481429967178,146.79811096191406,200600
2024-09-06,146.46697415286368,149.13566723576417,146.46697415286368,148.41493225097656,319100
2024-09-09,148.59998302653705,149.0772232245831,147.49938200179562,147.9571533203125,241500
2024-09-10,147.9181836882304,148.8142425709734,147.4993798583381,147.5675506591797,158100
2024-09-11,146.8663066160262,146.95397603273526,144.76252298810905,146.91500854492188,178000
2024-09-12,146.9637098345748,148.05456170073086,146.06765082141203,148.00587463378906,200400
2024-09-13,148.229880848657,149.02853597846607,147.94741858852652,148.31753540039062,138600
2024-09-16,149.05773552118288,149.18435754345714,148.11298958996787,149.00904846191406,182900
2024-09-17,149.9927649627968,151.5219191158579,147.9181849513857,149.04800415039062,259900
2024-09-18,149.75900813476628,151.4440025327287,148.73634205746214,149.08697509765625,214200
2024-09-19,150.98622094035395,154.67759462046783,150.98622094035395,152.81729125976562,412400
2024-09-20,152.2426587848195,152.2426587848195,150.4602753884125,151.8530731201172,663300
2024-09-23,152.1063217320608,152.82707165167685,150.7135386843107,151.90179443359375,315800
2024-09-24,152.11603410552289,152.99262412844,151.96994319924016,152.55433654785156,246200
2024-09-25,153.2069113857245,153.76207173006424,151.81411358113382,153.0510711669922,284100
2024-09-26,153.8302663844023,154.92111825576467,153.59650604264948,154.25881958007812,371600
2024-09-27,154.55100141706893,157.3463316298126,154.1419319653425,155.72952270507812,354300
2024-09-30,155.14510798319304,156.24570900619995,154.7944749495995,156.02169799804688,289800
2024-10-01,156.3626097407792,156.3626097407792,154.91139028594895,155.8074493408203,192200
2024-10-02,155.70028846125726,155.94378321896212,153.84973424739667,154.61917114257812,186900
2024-10-03,153.87896779578838,156.28469743108852,152.56409002818182,154.8042449951172,367000
2024-10-04,155.7782195226645,157.2684063556804,155.18409167761138,156.4015655517578,350500
2024-10-07,155.2425276346262,155.48602240881075,153.89843172537022,154.5607452392578,223300
2024-10-08,154.16140851662,154.88215839036292,153.0121203289736,154.541259765625,205900
2024-10-09,154.2296012026817,155.88536275157466,154.00557530229472,155.54446411132812,152600
2024-10-10,153.93738118810276,155.2327750185027,153.93738118810276,155.07693481445312,168500
2024-10-11,156.75218568056042,157.70668095780067,156.17754162622376,157.3463134765625,194400
2024-10-14,160.69678791517742,163.39469883242896,159.2066013513777,162.83953857421875,469700
2024-10-15,162.9661894401701,165.24529695748606,162.15778500726063,164.29078674316406,397300
2024-10-16,164.31027038182938,164.79725992941144,161.60260968621262,161.719482421875,330000
2024-10-17,162.63500734074424,163.94015048027507,162.18698532860228,163.52133178710938,238200
2024-10-18,164.69986730082573,164.69986730082573,163.414207789957,164.24209594726562,171500
2024-10-21,164.0862524476999,164.1057361900711,161.97271968352462,162.00193786621094,217900
2024-10-22,161.40781358966652,162.0408940440798,160.52148906409494,161.49546813964844,228500
2024-10-23,162.1772317157538,163.60898197974547,161.8363479958803,163.28756713867188,318100
2024-10-24,164.38138841449273,164.3911490539813,162.26215240803288,162.65280151367188,547300
2024-10-25,164.96734120598276,165.87558734575057,160.75819577884172,164.95758056640625,518900
2024-10-28,165.92439581087592,167.3990718969887,164.81107199246878,165.14312744140625,350000
2024-10-29,165.07475181943673,165.52399452591067,163.7172779631245,164.75247192382812,338100
2024-10-30,164.41068693257148,166.2173887714383,164.18605810635694,165.07476806640625,290300
2024-10-31,165.13335357792894,166.29551040666678,163.93213929101648,163.98097229003906,329900
2024-11-01,164.16653293752452,166.98890749293048,163.69775401702358,165.4458770751953,316300
2024-11-04,165.6607063917498,166.57871301776453,164.24462409746818,164.32275390625,191800
2024-11-05,163.81495853194275,166.37364684373878,163.81495853194275,166.32481384277344,206200
2024-11-06,171.05154898002016,171.05154898002016,168.1119872286225,169.10812377929688,264100
2024-11-07,170.12378096512896,171.35430696476374,169.47922114643825,170.62185668945312,412300
2024-11-08,170.61208381104976,173.67860841546667,170.4070060757364,171.64727783203125,309200
2024-11-11,172.1942029189047,173.8641813863164,171.7840176058394,172.02816772460938,189100
2024-11-12,172.51645146428592,173.09265701480297,170.85623379576612,171.58868408203125,179800
2024-11-13,171.3933868408203,172.26256068514002,170.95391959849974,171.3933868408203,168400
2024-11-14,171.05155682058597,171.67658049046,169.8405818424337,170.02613830566406,198200
2024-11-15,168.92257425336157,169.69408202115162,162.28168847937133,162.59420776367188,620500
2024-11-18,162.49655239968402,163.8930988274997,160.4847578059515,162.78953552246094,384400
2024-11-19,162.52580394628063,163.7465541996643,162.3109507095462,162.99456787109375,287600
2024-11-20,163.09226951003035,164.9868767017905,161.773852987427,164.7817840576172,221800
2024-11-21,164.74271987680694,166.24667789967594,163.81495249958823,165.90487670898438,205100
2024-11-22,166.1978542572136,168.04364337816776,166.1978542572136,167.49673461914062,241600
2024-11-25,168.0241100492806,169.94801412387145,167.7213662946961,168.4635772705078,270100
2024-11-26,168.81514749207574,168.81514749207574,167.1549297751935,168.0143280029297,140300
2024-11-27,168.62958510670097,169.81127811822287,167.50650063518984,167.71157836914062,167200
2024-11-29,168.5514742252474,169.43042360328997,168.06317398247072,168.91282653808594,117300
2024-12-02,168.93233680546206,169.05929962886407,166.84241249869427,168.7174835205078,170900
2024-12-03,169.39132382716835,169.39132382716835,167.0865464581629,168.3658905029297,160100
2024-12-04,167.86782016783718,168.84442043989435,167.02794333779852,168.5514373779297,173400
2024-12-05,167.98502374389864,168.40496965056505,166.5396593733903,167.09632873535156,245000
2024-12-06,167.58463897320985,168.61005749857284,166.85218865409922,167.14515686035156,209200
2024-12-09,167.5455502695353,169.41086047668688,166.24667004212424,166.79356384277344,301700
2024-12-10,166.72522539571543,167.36000970992765,164.25442751782737,166.91078186035156,287000
2024-12-11,167.85806889036164,170.02612280736926,167.73110607935809,168.2779998779297,418600
2024-12-12,167.65298456324717,168.5612306607672,166.78381082569527,167.62368774414062,178300
2024-12-13,166.91075419230455,166.998644639382,165.8462634841781,166.2173614501953,153200
2024-12-16,166.15878101655767,166.93028872730167,163.66844717273165,163.70751953125,236100
2024-12-17,162.9946031274387,163.0043786686916,159.02960783108298,159.2737579345703,511900
2024-12-18,159.85973142770067,160.5726455898807,154.214981970008,154.50796508789062,468600
2024-12-19,154.80093483209816,157.78934478191135,154.5274878931726,155.1525115966797,404700
2024-12-20,155.00601023435632,156.0412042310304,153.7852597851201,154.4786376953125,730200
2024-12-23,153.49228296319632,155.1817974814259,153.28720522432621,154.81069946289062,194900
2024-12-24,155.06460748481138,155.6896311333145,154.2247305600973,155.62127685546875,100500
2024-12-26,154.7130496409685,155.89474280440862,154.7130496409685,155.13299560546875,164500
2024-12-27,154.12707581536193,155.84588708263334,153.92198318319998,154.4493408203125,145000
2024-12-30,153.3262778591197,153.80481746674624,151.37307686728377,153.06259155273438,221700
2024-12-31,153.59970058644706,154.54700411025723,152.52543424962974,153.42391967773438,317100
2025-01-02,153.96104492700826,154.4102876614351,149.8593262852289,150.55271911621094,239400
2025-01-03,150.43553065073638,152.07622719806142,149.29290988290282,151.8613739013672,250700
2025-01-06,150.39646609155173,151.02148977014832,147.89637137716537,149.34173583984375,369000
2025-01-07,152.2715539340709,152.40827741317517,149.02924790028047,149.83981323242188,361200
2025-01-08,149.31242715408106,150.65036486716312,148.53114389248458,150.54293823242188,228600
2025-01-10,149.14643028639964,150.68946087220502,149.00970681179618,149.85934448242188,350800
2025-01-13,149.351489060231,151.08007590647148,149.351489060231,150.28903198242188,349300
2025-01-14,151.18748931990888,151.81251291278505,149.88860913904762,150.99217224121094,196900
2025-01-15,152.46686153360938,153.2481448947014,150.56249358589434,151.9199676513672,206100
2025-01-16,152.24223989964935,153.49228725350105,151.67580986403843,152.7500762939453,346300
2025-01-17,153.29695885699005,154.2540230320317,152.03713605455528,152.4375457763672,231900
2025-01-21,153.0528143054371,156.50997312910235,153.0528143054371,156.0900421142578,270900
2025-01-22,155.61149546068765,156.98850552412839,154.63489511528093,155.3478240966797,280000
2025-01-23,154.7521187567618,156.07052046490324,154.0391896764672,155.8849639892578,149800
2025-01-24,155.91424200320077,156.71506145375167,153.54111027377883,154.59584045410156,329600
2025-01-27,154.54702831099388,155.20134885433862,152.98446155852756,154.7521209716797,317000
2025-01-28,153.88292658532947,156.59787440646915,153.88292658532947,154.71302795410156,204300
2025-01-29,155.0646061385479,155.10367849846844,152.95514575501196,153.43368530273438,265800
2025-01-30,154.1270810917156,154.96694312356598,152.9160912404324,154.42982482910156,274200
2025-01-31,154.20518277543422,155.66032259995123,153.09185901964062,153.4727325439453,834100
2025-02-03,150.9629044447037,153.08212570452554,150.53319784792123,152.33013916015625,364600
2025-02-04,152.43754527468874,154.7520982407055,152.43754527468874,154.00987243652344,302400
2025-02-05,155.01866189479728,156.3702319730873,154.52896432375118,155.05784606933594,262600
2025-02-06,156.54649741836073,156.54649741836073,152.16860045521503,153.22634887695312,446600
2025-02-07,154.37223282693162,154.64646222731156,139.11325716004725,140.22976684570312,1221500
2025-02-10,141.28754664505917,141.6205523719065,137.99677816426612,140.32774353027344,621900
2025-02-11,139.33853138038594,140.12205037233227,137.36993785826826,139.3581085205078,377300
2025-02-12,138.06531924654766,140.53339891858562,137.0467400415367,138.7802734375,423500
2025-02-13,139.80863972660936,140.81741540614397,138.54522672072014,139.82823181152344,665900
2025-02-14,140.72928446288225,142.3158997444021,139.7792700193002,141.80661010742188,512800
2025-02-18,141.806629148029,144.25511722944964,140.93496798881864,143.87315368652344,489600
2025-02-19,143.12878909814165,144.45097836650277,142.60971092774975,144.01023864746094,331000
2025-02-20,143.94170202111488,144.3824268363581,142.91333415595835,143.6576690673828,283100
2025-02-21,144.00046152927248,144.35304436591701,142.20816668836144,143.32467651367188,451900
2025-02-24,143.1679734070286,144.25510260272546,141.38548203557013,142.60972595214844,353300
2025-02-25,142.8741632870377,145.27367831527678,142.7174564829414,144.6664581298828,336700
2025-02-26,143.6282730672493,146.10614126129204,143.59889241233037,143.6184844970703,735600
2025-02-27,143.21694635144803,144.14736874046284,142.3648773665291,142.6293182373047,262800
2025-02-28,143.14838730085012,143.9221028321513,141.64991403633834,143.72622680664062,348700
2025-03-03,143.9417092483485,145.7731734330009,142.6880846270143,143.5695343017578,394100
2025-03-04,142.54117057614394,144.90151659055175,142.14941847460233,142.9329376220703,490100
2025-03-05,143.04065503791688,145.78296426258473,143.04065503791688,145.38140869140625,445100
2025-03-06,144.51955819613613,148.3783778054115,144.0298605796166,148.03558349609375,471700
2025-03-07,147.40875736971992,150.20003950079644,146.10616003817648,149.63198852539062,480200
2025-03-10,148.93662196596816,150.82684736023063,147.14432711634848,147.467529296875,391100
2025-03-11,147.24227347370973,147.4577416172004,144.2355379258109,144.84275817871094,304000
2025-03-12,145.18554224213253,145.18554224213253,142.56075547219578,143.0210723876953,299700
2025-03-13,143.39326333992943,144.1669790183789,140.79785693906416,141.77725219726562,238400
2025-03-14,142.237534136815,143.86333345171332,141.56174918397278,143.63807678222656,223600
2025-03-17,143.49116498279625,144.9504690034165,142.85456417100727,144.79376220703125,225200
2025-03-18,144.35302891009385,144.49014361275349,142.7762023573171,143.28549194335938,219900
2025-03-19,143.32466483055046,144.42159742424096,142.47259593827573,143.95147705078125,279600
2025-03-20,143.1190209381293,144.38243413158088,140.76846356409283,142.2081756591797,332800
2025-03-21,141.0329025919921,142.4628260965788,139.42669513246977,141.8360137939453,601900
2025-03-24,142.7468386396778,145.1267616063011,141.92415032610805,144.94068908691406,463800
2025-03-25,145.43039772394542,146.15514060303397,142.92313347424803,144.17677307128906,325200
2025-03-26,144.0200657855328,145.63606187248132,143.2855193924863,145.4989471435547,630400
2025-03-27,145.22471455574868,146.80154137661276,144.0004705937233,146.27267456054688,312700
2025-03-28,146.2138845778836,146.90926165859608,142.7566211490686,143.9025115966797,239800
2025-03-31,143.5597480313838,146.01802456611082,143.08964252694352,145.32266235351562,372500
2025-04-01,145.81233341659282,146.93863169683007,144.3432409061711,146.02780151367188,240000
2025-04-02,144.95046129125058,148.01597245076098,144.95046129125058,147.42832946777344,247600
2025-04-03,143.73602588355362,146.9582442746014,143.44221929600363,145.60667419433594,352900
2025-04-04,142.2277708498692,144.91131905351403,137.15449598879215,137.29161071777344,531600
2025-04-07,133.5307294902565,139.19163219073434,128.15385974857273,131.87554931640625,629900
2025-04-08,134.54929557388985,136.4395208305467,128.5749798434124,130.90594482421875,473800
2025-04-09,130.43582718258966,141.44423305934052,128.6141667138947,140.7880401611328,491800
2025-04-10,137.11531475806592,140.41587148111097,134.73539182521205,137.85964965820312,309000
2025-04-11,137.967394489513,141.72828334567205,136.8606880961678,141.14064025878906,203000
2025-04-14,142.79582951782007,143.38345769739846,140.82723551361107,142.78602600097656,249300
2025-04-15,143.0896488919898,143.52057023933776,140.807656215774,140.97415161132812,250700
2025-04-16,141.09164958012386,142.8153944455794,139.63236050898016,142.0122833251953,307700
2025-04-17,142.40405194984112,142.75663480933545,137.8107011490633,140.8664093017578,390600
2025-04-21,140.347331860725,141.08187824351555,138.19266546008294,139.6421661376953,291600
2025-04-22,141.52260661323547,143.79481065396374,140.63135339324026,143.01129150390625,217800
2025-04-23,144.823151790697,146.24328667195422,144.1865509396658,144.99945068359375,537000
2025-04-24,144.88192409202932,148.86806971088194,142.4628317080614,148.33920288085938,424500
2025-04-25,147.74175781185858,149.84745131334506,144.52934305768525,145.98863220214844,220500
2025-04-28,146.71340875780027,147.9180607088582,145.2247238205769,146.61546325683594,235200
2025-04-29,146.67419752698908,148.84845573678555,145.93965123839249,147.2030792236328,359900
2025-04-30,145.99844818091182,146.8994899625974,144.17677252930838,146.8603057861328,556200
2025-05-01,145.82883124627438,147.8721067076984,144.36514960993844,145.66183471679688,445300
2025-05-02,150.28867188742916,150.29848992197137,145.18047592473235,149.31614685058594,431600
2025-05-05,148.7562234700928,150.51462619082648,148.21594670199013,148.8053436279297,267600
2025-05-06,147.59705042912566,149.355437978684,146.78170385931236,148.25521850585938,312000
2025-05-07,149.19827245283236,150.44583737765655,147.9605105733144,148.7169189453125,318400
2025-05-08,149.10985945249004,151.84078718705774,148.5695827139862,150.6521453857422,302500
2025-05-09,151.19241752840685,151.57553070592974,150.23954360160494,150.6128387451172,231600
2025-05-12,153.0392239180569,153.82510139061208,150.98613045039815,152.7740020751953,352500
2025-05-13,153.55005471787953,153.55005471787953,150.49496693494288,150.9272003173828,339400
2025-05-14,150.90754450151144,150.90754450151144,148.3043412429943,149.7876739501953,350100
2025-05-15,149.65996739529265,152.7346909024297,149.65996739529265,152.21405029296875,278100
2025-05-16,152.4399964689241,154.3752135929202,151.86041763202704,154.23768615722656,278600
2025-05-19,153.5991717253283,155.5442069170815,153.5500515711728,155.28880310058594,185400
2025-05-20,157.43029958325823,157.43029958325823,155.12180229520027,155.73085021972656,388100
2025-05-21,154.09032526701444,154.86636965019244,153.07851316508325,153.68756103515625,319800
2025-05-22,153.5991755437167,154.4832783830283,152.81329802579143,153.88404846191406,278900
2025-05-23,152.3810559407016,153.4223372220158,151.53624028030902,153.18658447265625,260500
2025-05-27,154.25733338201647,155.642440728808,153.9233403306864,155.3673858642578,352800
2025-05-28,155.36739421063615,156.03538034918074,154.4832763933447,154.6208038330078,364400
2025-05-29,155.0432217337395,155.86838638532782,154.05106054476073,155.53439331054688,232100
2025-05-30,155.44598590152702,155.97644460873903,153.77599055020596,155.6031494140625,335100
2025-06-02,154.75831599595244,156.26131463804512,152.51857506289332,154.1394500732422,349600
2025-06-03,153.4223415376803,154.66010346409962,153.24552697068694,153.5009307861328,397800
2025-06-04,153.72689030243944,153.75635939881812,147.63635056847724,147.75424194335938,831900
2025-06-05,148.90356481639972,150.6324832288513,146.41823804065308,149.79750061035156,482400
2025-06-06,151.6443086942385,151.75236704132885,149.52245886221365,150.60302734375,264700
2025-06-09,150.0136191980335,150.4753066580511,148.6874500367206,148.9232177734375,388400
2025-06-10,149.47332984142486,150.2984944487939,148.19628081228734,149.8367919921875,323500
2025-06-11,150.29849644880608,150.8780752886444,148.92322208489034,149.23756408691406,380800
2025-06-12,148.7365731786107,151.88988615274167,148.7365731786107,151.62466430664062,337200
2025-06-13,150.29848970697998,151.00577791651503,148.0685667411024,148.49098205566406,361200
2025-06-16,148.5695605867346,150.2002385733968,148.45166923406939,149.01161193847656,346200
2025-06-17,147.9998142251002,148.58921108822153,146.49683048956007,146.81117248535156,379700
2025-06-18,146.48700188455078,148.06857491409224,146.48700188455078,147.0567626953125,383200
2025-06-20,147.6363309167007,148.10786637472864,146.35929693863002,147.6461639404297,570500
2025-06-23,146.85046100186406,151.22188436993758,146.85046100186406,151.07452392578125,356500
2025-06-24,151.84077408220156,151.84077408220156,150.47530283808342,151.1531219482422,246600
2025-06-25,151.14331042765082,151.80147850793904,150.0725600428252,151.21206665039062,264700
2025-06-26,151.80147000378724,152.83293320202972,150.41636270870066,151.75234985351562,658200
2025-06-27,151.92918872409527,153.3535832332286,151.50677339306424,153.06871032714844,643100
2025-06-30,153.27497651207332,153.7366789194791,151.88005125606443,153.66790771484375,315500
2025-07-01,153.66793021902077,156.9784367941011,153.20624273336693,156.20237731933594,338300
2025-07-02,156.21219361043833,157.69552619700025,155.8487164947486,157.48924255371094,293500
2025-07-03,157.76429959403765,158.51087491476963,156.99807321531225,158.19651794433594,235100
2025-07-07,158.10811741535406,159.5030428051159,157.7151861749073,158.11795043945312,313900
2025-07-08,158.0589815738471,159.70932559651376,157.02753342271552,157.2239990234375,342700
2025-07-09,157.10610304610967,157.1846922819576,155.30842861253296,156.90963745117188,252800
2025-07-10,156.37920902223024,157.52854871323547,155.53439331054688,155.53439331054688,361600
2025-07-11,155.7603190354981,155.7603190354981,153.86440405350666,155.11196899414062,292000
2025-07-14,154.3654022940558,156.13362296539574,153.92335087356255,154.77798461914062,276600
2025-07-15,154.95480896302266,155.21021277775083,151.34961151557988,151.43801879882812,254200
2025-07-16,151.2022641344678,152.8624265472358,150.83880194564915,152.24354553222656,261900
2025-07-17,152.00777788286257,153.6482890740105,151.78182817574609,153.27499389648438,397700
2025-07-18,154.08052265083427,154.43416676966828,152.18459265589,153.6188201904297,243100
2025-07-21,153.65810471165034,153.9036904847458,152.49894705753542,152.70523071289062,205900
2025-07-22,153.35357548550758,156.54619042612177,152.48910879729814,156.3595428466797,449900
2025-07-23,157.24368095923748,158.99225063096037,156.33009400189493,158.80560302734375,450500
2025-07-24,158.559320268112,161.82979531304568,157.40675735764995,159.406494140625,431900
2025-07-25,159.63305506440543,160.65753702914088,158.3819926877325,158.5888671875,296300
2025-07-28,158.79573614749467,159.56410142477418,155.80108366056007,156.33302307128906,308500
2025-07-29,156.67779828906407,157.21959813532774,154.8750906357904,156.45123291015625,388200
2025-07-30,156.43152305866946,156.55957390550213,152.60938790987095,154.4514923095703,580700
2025-07-31,153.456563501654,155.0031544025075,152.86550639902828,154.79627990722656,679700
2025-08-01,154.6288158726098,155.76165777291718,138.9856590147076,139.24179077148438,1012300
2025-08-04,140.98538123418317,140.98538123418317,135.03547356824112,137.05490112304688,839000
2025-08-05,137.26176707147744,138.9659752764255,135.63638251685612,138.12864685058594,540800
2025-08-06,138.21731427393004,138.6605996470306,135.4984842918658,136.4737091064453,515300
2025-08-07,137.71491162131494,139.37970798596095,136.83818640949156,138.39462280273438,564000
2025-08-08,138.59163887027924,139.93135534040795,138.48327889728324,138.65074157714844,428700
2025-08-11,139.222090228796,139.5077583171329,137.12385398637957,137.7838592529297,349500
2025-08-12,138.12862654943748,138.98564573069308,137.15338694127408,137.399658203125,286100
2025-08-13,137.60654859738395,139.33044762978915,137.17310872138614,139.32058715820312,729900
2025-08-14,138.09910131689176,138.09910131689176,134.40503169053025,136.2766876220703,875800
2025-08-15,136.29638497225332,136.8775816161289,135.81368782683418,136.65101623535156,770500
2025-08-18,136.81847442171076,137.4883401327873,135.3014499206359,135.83338928222656,529500
2025-08-19,136.20773671589527,138.4241784468644,136.20773671589527,137.50804138183594,333100
2025-08-20,137.8232781418471,139.14328874260568,137.18296372359896,139.07432556152344,519200
2025-08-21,138.53252821704885,139.78357552390523,138.1483456132288,138.54237365722656,270400
2025-08-22,139.15312448451428,141.19225798353852,139.08417633944555,139.32058715820312,356500
2025-08-25,138.8674588166062,139.4979127296023,136.88744301904194,137.47848510742188,245800
2025-08-26,136.9957973337368,138.06953652648775,135.95159446141804,137.62625122070312,442900
2025-08-27,137.0154742342195,138.47341091192982,136.9563715369727,137.36026000976562,729100
2025-08-28,138.07938928608468,138.07938928608468,135.35069910089788,136.8184814453125,320800
2025-08-29,137.09429553325865,137.7838521169858,136.2865335440943,137.19281005859375,370700
2025-09-02,135.37038827134234,136.46383329831713,134.13903193606467,134.37545776367188,310600
2025-09-03,134.0504057475134,134.1489052560839,132.4348665011149,133.20323181152344,382300
2025-09-04,134.3163671782823,136.41458834161003,133.0258929963137,136.3948974609375,401800
2025-09-05,136.94654859153968,138.7197049562119,135.5772807659998,136.55250549316406,440800
2025-09-08,136.52295752982062,137.91193130257207,135.62652636886406,136.23728942871094,616100
2025-09-09,136.1978803964661,137.39968559639797,133.08502244977814,135.0059356689453,637100
2025-09-10,134.09967481585545,135.409840147903,132.8387667580311,134.21788024902344,685100
2025-09-11,134.71040519706986,136.2175843964125,133.84352538471833,135.05519104003906,477500
2025-09-12,134.58232620679007,135.00592063066784,133.20321303157323,133.2130584716797,261300
2025-09-15,133.9420357302436,134.13904976383114,132.62202517087903,132.8387451171875,298000
2025-09-16,132.77962562814162,133.40023410540573,132.0999294759084,133.19337463378906,474800
2025-09-17,133.4002281421939,135.02562764541634,132.18857762612365,132.64170837402344,377400
2025-09-18,132.88798558145595,133.48888814617573,132.07037810452255,132.49395751953125,254800
2025-09-19,132.65158018177598,133.0850200863436,131.35126046807318,132.4348602294922,877200
2025-09-22,132.11962230163485,132.92739938115005,130.691251766929,130.74050903320312,402100
2025-09-23,131.0261738005905,131.95215627068484,130.00169183165633,130.0509490966797,319700
2025-09-24,130.03125417731107,131.3217134615017,129.38109429893456,129.53871154785156,353300
2025-09-25,129.53870141670419,130.54349251095573,128.32705085173455,128.8688507080078,388700
2025-09-26,129.37123644965243,130.4548211118124,129.00675974879576,130.31690979003906,274400
2025-09-29,130.42527680922657,130.7010994676822,129.4007947965638,130.29722595214844,540600
2025-09-30,129.74557555443596,131.76498814664785,129.74557555443596,131.66648864746094,310400
2025-10-01,131.3413962300209,132.3560326654084,130.33660523425266,132.13931274414062,310100
2025-10-02,131.66648573117217,132.38559368725765,130.97692912730892,131.19363403320312,398500
2025-10-03,130.49423360821496,131.58767874762543,130.45482178395852,131.23304748535156,402000
2025-10-06,130.90797079558112,131.21334480064905,129.45004891757588,129.9130401611328,447100
2025-10-07,130.13960666531722,130.5336347337186,127.8739076939909,128.64227294921875,438800
2025-10-08,129.2234697553329,130.04109227782575,128.31719317203184,129.64706420898438,361300
2025-10-09,129.73571125193516,130.8587077217144,128.258083526899,128.66197204589844,554200
2025-10-10,128.98704858156654,130.04108184834632,127.95270619480443,128.97718811035156,426000
2025-10-13,129.0363213593292,130.37603789072034,128.21869880410003,128.27780151367188,311400
2025-10-14,128.10048555861533,129.10527677147402,127.11540026045824,127.86407470703125,337400
2025-10-15,127.86406447402499,128.44526114593418,125.95299674355027,126.18942260742188,438300
2025-10-16,126.52433431790585,127.56852213268624,125.94313019312601,127.23359680175781,352700
2025-10-17,127.23361106421747,128.15959357922404,126.92823704995098,127.41091918945312,339700
2025-10-20,127.67689829106764,128.14973499654218,126.11061637022783,128.0610809326172,240500
2025-10-21,128.66197064438,129.80467301345007,127.19418837559832,128.62257385253906,311600
2025-10-22,128.70137488096933,130.13960588126338,128.04136960320932,128.12017822265625,357500
2025-10-23,128.27838836608,130.0482160538345,128.19928781482736,129.29678344726562,378600
2025-10-24,129.27699821696652,129.41542040316887,127.09188897025071,127.42807006835938,489300
2025-10-27,127.68513804202082,128.43657062662018,127.00290900843953,127.32919311523438,521700
2025-10-28,127.29953156353623,127.65547648827675,126.03395296154486,126.6568603515625,413500
2025-10-29,125.84608767724626,126.06361040803851,122.02957306455488,122.9095458984375,651100
2025-10-30,122.6425973459498,124.10591981246533,121.65386309537952,122.95899200439453,702600
2025-10-31,113.99117408852003,116.76951495369767,102.06704129042897,114.70306396484375,2758200
2025-11-03,114.78215353846566,114.78215353846566,107.07003104374891,111.84561920166016,1661000
2025-11-04,113.07164922422088,114.69317278774453,111.26226373964292,112.8936767578125,1029100
2025-11-05,113.04198468525121,114.73271928879292,111.49955417930168,114.26801300048828,896900
2025-11-06,113.72420198995826,115.64234871180304,112.517952627641,114.84147644042969,880300
2025-11-07,114.92057976181373,115.60280123250854,113.39792818360942,114.91069030761719,697200
2025-11-10,114.68328006091402,115.45449154553131,112.71570107535919,115.06888580322266,514000
2025-11-11,115.64235215314066,118.16362740289492,115.64235215314066,116.93759155273438,484800
2025-11-12,117.0067994446968,118.32181771681981,116.58165098825971,116.8288345336914,547500
2025-11-13,116.96726664292429,120.50692958090833,116.96726664292429,118.84585571289062,679400
2025-11-14,118.42069332802943,119.33033453666947,117.05624283023447,117.27376556396484,521200
2025-11-17,117.1551218108406,118.14385608312521,116.24548809076526,117.99554443359375,820200
2025-11-18,118.31193671929118,118.75686408712447,116.72995598156568,117.96587371826172,817400
2025-11-19,118.16362983624596,118.16362983624596,116.38390520642318,116.67063903808594,598900
2025-11-20,116.67063483535937,118.26249749040201,116.04773500908134,117.24410247802734,507400
2025-11-21,116.79916971414367,120.86286792776397,116.79916971414367,120.1509780883789,509100
2025-11-24,119.48852930748254,121.02107037008182,119.08315219875638,120.10154724121094,740000
2025-11-25,121.0309595133857,122.68214385066395,121.0309595133857,122.04935455322266,543600
2025-11-26,121.63407548431789,123.11717675407199,121.63407548431789,122.41517639160156,538000
2025-11-28,122.23721179455744,124.65961521692697,122.23721179455744,123.34459686279297,315700
2025-12-01,123.47312464549341,123.55222519221778,121.64396787729149,121.89115142822266,536800
2025-12-02,122.37563109798752,122.46462110038372,119.4390968008952,120.2300796508789,325400
2025-12-03,120.08176988930819,122.86011822072538,120.04222715811682,120.68489837646484,543100
2025-12-04,120.82332005860296,122.6821452414219,120.55636513524256,120.64534759521484,708000
2025-12-05,120.61568357957054,122.11856379579517,119.26112254625717,120.53659057617188,537000
2025-12-08,119.55773823925648,120.72444490270962,117.95599365521366,118.71731567382812,496600
2025-12-09,118.25260671307173,118.49979025868578,114.06037589162156,114.41632080078125,640300
2025-12-10,114.86124902547321,116.47289058274676,113.83296456280685,115.84998321533203,734700
2025-12-11,116.6310870053096,117.33308739219939,115.84010415999195,116.68052673339844,389700
2025-12-12,117.18477675810965,120.26963024864754,116.32458281214376,120.10154724121094,656400
2025-12-15,120.11143594513233,121.08039125301917,119.12270172858626,120.95185852050781,588600
2025-12-16,121.2880193092629,122.45472593627359,118.17350515259987,121.44622039794922,644800
2025-12-17,120.73433285185864,123.19627887906455,118.72720364799784,122.2372055053711,567300
2025-12-18,122.2767604710972,122.72169540087228,120.65523693661119,121.23859405517578,457100
2025-12-19,121.95047437935206,122.92932668285609,119.89391294648267,120.02244567871094,1300400
2025-12-22,120.02244905131522,122.30642273678362,119.70605439556444,121.35723876953125,527800
2025-12-23,121.48577799610219,121.64397155088497,119.95323691666961,120.81343841552734,311700
2025-12-24,121.1495961120519,121.78238537460243,120.38827412360435,121.36711883544922,198000
2025-12-26,120.99141254975284,122.08890816765887,120.34873378036154,121.86149597167969,306000
2025-12-29,121.90103810595791,122.90954365167185,120.9419647432383,121.82193756103516,400200
2025-12-30,121.41656795360201,122.89966931682952,121.04084411378047,121.35723876953125,289800
2025-12-31,120.15097596397585,121.94058998507745,119.98289296138277,120.58602142333984,314300
2026-01-02,120.36849451795845,121.61430167163682,119.41931062963688,121.15948486328125,295100
2026-01-05,120.3882753233874,123.17650539661395,120.3882753233874,121.61430358886719,435700
2026-01-06,120.84309994356978,121.4659997987374,118.75687009500949,119.20179748535156,777200
2026-01-07,119.31055741898699,120.57613602320409,116.28503309681528,119.0831527709961,478500
2026-01-08,118.56900865138992,121.98014631699301,118.17351344536358,121.06062316894531,330000
2026-01-09,120.70467850674399,123.5621198728979,120.09166055886544,122.4547348022461,429100
2026-01-12,122.60303947816963,123.88839694168902,121.59453392415777,123.72030639648438,477300
2026-01-13,123.64121411549613,124.02681984811237,121.15948917361368,122.10867309570312,351900
2026-01-14,122.71180688445504,125.72744932780128,122.71180688445504,125.42093658447266,611700
2026-01-15,125.70766789113175,125.78676843900955,123.11718152395939,123.7005386352539,381000
2026-01-16,122.60304567683241,123.78952374665012,121.85160554277793,123.30504608154297,363400
2026-01-20,123.49290649216461,124.1158063396922,122.0493554255934,122.4250717163086,275100
2026-01-21,122.90954323158518,124.2047901340779,122.50416614126715,123.6016616821289,421000
2026-01-22,123.64121667891544,124.98589581561515,122.66236437418617,123.0677490234375,369700
2026-01-23,122.93921055756546,124.85735737798285,122.4745118058816,124.58051300048828,429500
2026-01-26,124.99577817123766,125.55935637440064,123.69064930373163,124.92656707763672,315400
2026-01-27,123.54233481410213,124.87713201390274,122.77112334791536,123.33470153808594,303100
2026-01-28,122.80079414026893,123.66099567657822,121.86149959484645,122.30642700195312,347800
2026-01-29,122.88978028418853,123.86862507511535,121.20892754069328,122.4547348022461,386000
2026-01-30,121.52533188143772,123.60167232496788,121.27814831569736,123.54234313964844,512700
2026-02-02,122.80078342815366,124.49152553193812,122.80078342815366,123.42369079589844,489100
2026-02-03,122.51406220907022,126.48877049938638,122.29653947125486,123.22594451904297,658700
2026-02-04,124.77433039015442,129.44927260782487,123.77184577350829,128.26812744140625,589400
2026-02-05,126.71975064755804,128.1192596554473,121.05225107397254,123.05722045898438,2144200
2026-02-06,126.58078326238557,134.97782150042084,126.58078326238557,133.31031799316406,1045700
2026-02-09,132.5857587104382,138.531180271334,132.2582131007177,137.43936157226562,1043400
2026-02-10,136.78427392403074,139.88104683101494,136.78427392403074,139.126708984375,622100
2026-02-11,137.99519392074043,139.50388475135443,137.56840169460276,138.9678955078125,584300
2026-02-12,139.11678651599092,140.94308767923593,138.3525134196047,139.46417236328125,572700
2026-02-13,139.46418324151318,141.8661694437224,139.3649366253535,141.51878356933594,471900
2026-02-17,138.2234773285034,142.55102629654255,138.2234773285034,140.59568786621094,614700
2026-02-18,140.41703714664675,142.04482998774162,139.791721402891,140.66517639160156,582000
2026-02-19,140.5956812663536,142.25326464590432,139.98030082414553,142.09445190429688,525500
2026-02-20,142.0547550361601,144.0597244456509,140.94309602664507,143.97039794921875,664500
2026-02-23,142.42200863639354,145.15154037209857,142.06468751245615,144.63540649414062,513500
2026-02-24,144.98279666295065,145.8165408414096,142.77931908758302,143.06715393066406,429800
2026-02-25,141.35004724560304,142.59074350649368,139.38477346379526,141.61802673339844,348900
2026-02-26,142.45176871915783,142.84878541602816,139.95052112226952,140.73463439941406,331300
2026-02-27,140.47658357934912,142.9381205686862,139.9505296087492,142.64036560058594,344600
2026-03-02,141.93563886113196,142.2830398395081,140.56590547180699,141.60809326171875,335000
2026-03-03,139.5931967078321,140.26814325067423,135.90088396317486,138.71974182128906,347300
2026-03-04,138.302888395737,138.47162126788456,134.9976717766612,136.02000427246094,389000
2026-03-05,134.9877396254558,135.32520533966746,133.40957777498073,133.72718811035156,452300
2026-03-06,133.0026313554941,133.0026313554941,130.02496050425168,131.096923828125,398500
2026-03-09,129.99519404049997,132.98278521657096,126.5807954705799,132.75450134277344,545700
2026-03-10,132.3574660154593,133.1316591702968,130.42196798314936,131.14654541015625,503100
2026-03-11,130.8190202738326,132.28800044532838,129.0721101988683,131.03738403320312,563800
2026-03-12,130.29295237048808,131.8016279987067,127.68252279954663,127.90088653564453,620600
2026-03-13,129.18127925269795,129.18127925269795,126.10436183607526,127.69244384765625,660600
2026-03-16,128.5162697582332,130.43191254892886,125.06217580985977,128.0894775390625,370700
2026-03-17,129.00262050471235,130.04480827067758,127.2855013216824,128.53611755371094,276700
2026-03-18,123.45423058912087,125.63786042046195,120.51626292882625,123.29542541503906,910500
2026-03-19,122.0944332187195,123.8909588849741,120.54603921873606,123.04728698730469,518500
2026-03-20,123.33512999241371,123.33512999241371,119.41452545613383,120.15894317626953,1481500
2026-03-23,122.5907105268858,125.39964092902298,122.07457667427936,123.21601867675781,455200
2026-03-24,122.24332284607306,124.28798782763778,121.95548040949986,123.2259521484375,405000
2026-03-25,124.50634549167631,125.62793211237509,122.78921864642815,124.88351440429688,337200
2026-03-26,124.28798636131239,126.3922023143744,123.19617519683187,123.76193237304688,442100
2026-03-27,123.01751427118627,123.28550132328671,120.85373975633635,121.08202362060547,381400
2026-03-30,121.64777727824665,123.01751071469691,120.19864504103799,122.44182586669922,562000
2026-03-31,123.46415851677581,126.01502957768723,122.67010992701152,125.08202362060547,557800
2026-04-01,126.39219982096562,127.68252689973865,125.38972274230011,125.80659484863281,380200
2026-04-02,124.2085781211438,126.14406117582702,123.32520302720033,125.07210540771484,297500
2026-04-06,123.66266876079281,125.25076596450165,123.66266876079281,125.07210540771484,461100
2026-04-07,124.38723692091199,126.22346576757812,123.8711106378232,124.67507934570312,376900
2026-04-08,130.4021481364575,131.68254004802253,127.19617800807119,131.03738403320312,645200
2026-04-09,130.24332882387228,131.45424955756675,126.39220287440348,130.42198181152344,424100
2026-04-10,131.2656579543429,131.71230555728022,129.87608426848973,130.521240234375,407400
2026-04-13,129.82646170678544,131.43439923843442,126.63042687940094,131.126708984375,396300
2026-04-14,130.2532453341348,131.73216065356567,129.99518597737963,130.03488159179688,315500
2026-04-15,129.83638260646234,130.05474636457114,127.64284005257605,128.6850128173828,407100
2026-04-16,125.95547520842267,129.35994576168224,125.95547520842267,127.33512115478516,393800
2026-04-17,128.6849981610624,131.31528307681364,128.6849981610624,129.65771484375,401100
2026-04-20,129.59817078840075,131.00759986778516,128.69494031122633,129.945556640625,403600
2026-04-21,129.72718762909471,131.2656538985368,125.74703979492188,125.74703979492188,310200
2026-04-22,126.33265459801167,126.33265459801167,122.04480863207884,123.62297821044922,458900
2026-04-23,124.44679072012924,126.49146323670142,123.51379231359721,124.01007080078125,440800
2026-04-24,123.48401687155638,123.48401687155638,121.65770810014067,123.1564712524414,440900
2026-04-27,123.11676900112164,125.29047121573323,122.62049050993973,123.8016357421875,359700
2026-04-28,125.18128618602746,125.70734016180099,122.79914797388655,124.8338851928711,354300
2026-04-29,124.20857785922294,124.96292327213307,121.87607050853111,121.9852523803711,448400
2026-04-30,122.51130595027864,125.14158341040145,120.97283963229869,122.75944519042969,764800
2026-05-01,126.26316859263083,127.5237125861033,117.0224658192811,118.13412475585938,989400
2026-05-04,117.79666211505766,120.84381172589876,116.58574139374336,119.7023696899414,739600
2026-05-05,120.00014032911528,122.78922301811379,119.92073395333378,121.1217269897461,628600
2026-05-06,122.74597925597982,125.94466800462597,121.24129756714204,122.19791412353516,917000
2026-05-07,122.5068295340525,126.02439054042098,122.13813047351475,124.66918182373047,749700
2026-05-08,124.78875603965518,125.4165335007669,119.9658058031768,120.56369018554688,794900
2026-05-11,120.79288554794945,120.79288554794945,119.0191585502766,119.53732299804688,706100
2026-05-12,120.02559365453983,120.43415267647454,116.72725880994862,117.6340560913086,696600
2026-05-13,117.58423293808002,118.33159035082205,116.01976505817387,117.46465301513672,679500
2026-05-14,118.31166263789773,119.73662439056804,116.62761485678391,117.57426452636719,531000
2026-05-15,117.49455009110837,117.5045093824967,114.06666843041747,114.26596069335938,447000
2026-05-18,115.19268785792543,116.90662874327987,114.76420263658683,115.40194702148438,433100
2026-05-19,115.48166685737739,115.63113986049136,112.05378509001822,113.20970153808594,575800
2026-05-20,113.66807993613209,115.04321484042606,111.15696237122292,114.85388946533203,562600
2026-05-21,116.08951407739181,116.08951407739181,112.37265332877841,115.1030044555664,345600
2026-05-22,115.39198749681162,116.38846404651633,114.30582410432685,115.82047271728516,405800
2026-05-26,115.79056648170686,116.55785764558959,114.96349676302546,115.96993255615234,344500
2026-05-27,116.52796630163347,117.69384200162881,114.32575411191587,114.89374542236328,464000
2026-05-28,114.40547144179769,115.93007936247552,112.95061657623215,115.58131408691406,510100
2026-05-29,114.65458561775299,116.84683851674723,113.34920381323532,115.44180297851562,559600
2026-06-01,114.28589767180515,114.72434218302038,111.63526640610465,111.9840316772461,706800
2026-06-02,111.5555436879482,112.65167394505289,110.84804626905223,111.78473663330078,452400
2026-06-03,111.29646253608045,113.61824699938008,111.29646253608045,112.13349914550781,372600
2026-06-04,114.54497230632394,115.35212345281656,111.14699134502068,112.15343475341797,337600
2026-06-05,112.69152600064275,114.18624078068318,111.58544405772433,112.96057891845703,466300
2026-06-08,111.86445781905672,112.24311616501637,110.55906839000053,111.54558563232422,422200
2026-06-09,112.88085932662787,115.74074968498803,112.27300803930216,115.49163055419922,444400
2026-06-10,115.74074928767203,116.13934141606836,112.97054577921195,114.26596069335938,496800
2026-06-11,114.70441351982215,116.59772043978674,113.85740999319688,116.16923522949219,395200
2026-06-12,117.48458764205596,118.05257897569324,115.96993901734801,117.30522155761719,342600
2026-06-15,118.28175862932584,120.31457162088154,117.14577601676713,117.66394805908203,576100
2026-06-16,118.08246565966249,120.62348378448296,113.36912845320511,120.22489166259766,474700
2026-06-17,121.19147655168894,121.918900150595,119.03908362900873,119.56721496582031,680500
2026-06-18,120.03556323646836,122.1182031608104,118.69032142639777,119.89605712890625,750600
2026-06-22,119.13873446752551,120.58363003359555,118.46113010611298,119.57718658447266,468400
2026-06-23,119.93591657137902,122.14809569936509,118.6604278207416,120.1850357055664,514100
2026-06-24,121.55021059109053,124.60939323702425,121.34094382937874,123.84210205078125,404900
2026-06-25,125.28699706013307,127.68850153642342,124.45991971828299,125.98452758789062,363500
2026-06-26,125.49625757990486,126.67210019838983,124.3204149614199,125.53611755371094,727400
2026-06-29,125.16742108368359,125.60587320209562,123.48337326752176,124.84854888916016,446600
2026-06-30,124.16097333332938,125.86494727656601,123.5033027809896,124.75885772705078,329300
2026-07-01,124.67914609082169,126.39307933521575,123.66273577346423,124.80868530273438,405600
2026-07-02,125.82508774888942,127.77818082996899,124.96812492977865,126.5325927734375,468400
2026-07-06,125.98452783897301,126.6023460237271,123.74245564919634,125.56600952148438,431400
2026-07-07,126.18381913439254,128.26645901687073,125.71548155556971,127.2400894165039,392700
2026-07-08,126.00445175211411,126.26353777363065,122.60647080352626,123.77234649658203,537700
2026-07-09,124.02146439127118,125.03787467960888,123.34386006655016,124.0114974975586,302100
2026-07-10,124.55956853594634,126.53259544666133,123.93179104742975,125.08769989013672,385200
2026-07-13,125.64571994715708,126.72191640641843,123.96167980892794,124.449951171875,391600
2026-07-14,127.96751666781715,128.95403392567474,127.5091383673285,127.82801055908203,739900
2026-07-15,129.25298235497795,130.3092450844948,127.99741214779503,128.65509033203125,466800
2026-07-16,129.56187796196684,134.6040465870392,129.56187796196684,134.27520751953125,579300
2026-07-17,135.351401437915,136.16850424088722,130.24944675099272,132.1427459716797,530800
2026-07-20,131.9135687694055,131.9135687694055,129.2928306127641,129.4522705078125,422900
2026-07-21,130.07008242817932,130.59821378154385,127.46927803301472,128.45579528808594,328800
2026-07-22,129.35261865201468,130.02025611657908,128.02730301458666,128.71487426757812,309900
2026-07-23,128.39600579528673,129.36258923692642,127.71839385448645,128.54547119140625,382800
2026-07-24,129.13338680160044,132.26232242316664,129.13338680160044,131.8936309814453,335900
2026-07-27,132.72071171310446,133.60757521827134,132.19258036761323,132.9000701904297,411200
2026-07-28,134.9030016293852,137.54365843276426,134.3549364800917,137.32443237304688,593100
2026-07-29,135.52081464440568,136.11870667337666,134.0759266469227,135.75,580000
2026-07-30,136.39999389648438,136.39999389648438,133.11000061035156,133.8699951171875,627000
2026-07-31,137.4600067138672,139.57000732421875,132.1699981689453,133.9600067138672,886500
2026-08-03,137.22999572753906,138.4600067138672,134.52999877929688,136.77000427246094,642500
2026-08-04,137.8699951171875,137.8699951171875,135.33999633789062,136.17999267578125,511900
2026-08-05,136.8699951171875,136.8800048828125,134.8699951171875,136.75,454800
2026-08-06,138.6199951171875,138.69000244140625,134.6699981689453,135.77999877929688,545000
2026-08-07,135.05999755859375,137.67999267578125,134.7100067138672,135.4199981689453,686300
2026-08-10,134.38999938964844,134.52000427246094,132.92999267578125,133.67999267578125,446700
2026-08-11,132.8000030517578,135.0500030517578,132.8000030517578,134.75,343700
2026-08-12,133.50999450683594,134.47000122070312,132.27000427246094,133.14999389648438,315100
2026-08-13,134.44000244140625,134.44000244140625,132.08999633789062,132.57000732421875,490800
2026-08-14,132.08999633789062,132.75,129.55999755859375,132.10000610351562,381600
2026-08-17,133.16000366210938,133.16000366210938,130.22000122070312,131.74000549316406,374500
2026-08-18,132.75,133.47000122070312,131.22000122070312,131.72999572753906,500100
2026-08-19,133.0500030517578,134.3800048828125,132.2899932861328,132.92999267578125,390400
2026-08-20,131.4499969482422,133.8300018310547,130.89999389648438,132.9600067138672,420900
2026-08-21,134.0399932861328,135.1300048828125,133.10000610351562,134.8000030517578,400500
2026-08-24,135.36000061035156,136.33999633789062,134.38999938964844,134.75,282300
2026-08-25,135.58999633789062,135.58999633789062,133.22000122070312,134.72000122070312,280900
2026-08-26,135.0,136.63999938964844,134.44000244140625,135.24000549316406,281400
2026-08-27,133.77999877929688,134.69000244140625,132.25999450683594,132.86000061035156,295700
2026-08-28,133.5500030517578,133.66000366210938,132.0399932861328,132.99000549316406,325400
2026-08-31,132.2100067138672,132.44000244140625,130.8300018310547,131.6199951171875,389200
2026-09-01,131.64999389648438,132.07000732421875,130.77999877929688,130.9199981689453,418200
2026-09-02,131.27000427246094,132.25999450683594,129.69000244140625,130.3300018310547,472500
2026-09-03,130.64999389648438,130.64999389648438,126.98999786376953,128.30999755859375,340000
2026-09-04,127.52999877929688,128.47000122070312,126.52999877929688,127.41000366210938,324000
2026-09-08,126.19999694824219,126.98999786376953,124.25,124.33999633789062,362200
2026-09-09,123.97000122070312,123.97000122070312,121.08999633789062,122.11000061035156,383000
2026-09-10,122.05000305175781,123.12000274658203,120.73999786376953,123.05000305175781,435100
2026-09-11,124.8499984741211,125.5999984741211,123.05999755859375,124.83999633789062,491900
2026-09-14,125.27999877929688,126.20999908447266,124.0,124.91000366210938,423200
2026-09-15,124.8499984741211,124.86000061035156,123.41000366210938,124.68000030517578,474700
2026-09-16,124.83999633789062,126.25,123.19999694824219,124.70999908447266,461600
2026-09-17,125.66000366210938,126.22000122070312,124.55000305175781,125.5,551500
2026-09-18,125.48999786376953,125.7699966430664,124.41000366210938,124.44000244140625,821300
2026-09-21,124.83999633789062,125.9800033569336,123.31999969482422,123.4000015258789,424400
2026-09-22,124.72000122070312,125.80000305175781,123.83000183105469,125.44999694824219,417700
2026-09-23,125.43000030517578,125.72000122070312,124.5,124.73999786376953,335300
2026-09-24,124.51000213623047,124.98999786376953,122.31999969482422,123.37999725341797,377200
2026-09-25,123.76000213623047,124.02999877929688,122.41999816894531,123.80059814453125,120663
