Date,Open,High,Low,Close,Volume
2023-08-21,118.45657390333537,119.7166455289142,118.37000011957406,119.06256103515625,358800.0
2023-08-22,119.14912600366445,120.9189972448731,118.08142922757334,118.2641830444336,429600.0
2023-08-23,118.36999112470143,118.85093535301714,117.64857478222787,118.68741607666016,305000.0
2023-08-24,118.7836111266511,120.67853268278533,117.91790999204319,120.34187316894531,278400.0
2023-08-25,120.78432371034013,122.81390878136902,120.21681308808253,122.67924499511719,493000.0
2023-08-28,122.76582157262821,124.6415084737932,122.76582157262821,124.47798919677734,331900.0
2023-08-29,124.85311628618399,126.93079873659495,124.4683521228197,126.79613494873047,472400.0
2023-08-30,127.32518462524928,128.181264860827,126.6807210481069,127.82537078857422,298900.0
2023-08-31,128.20047243764535,128.63331924053045,127.20011505592758,127.5079116821289,305800.0
2023-09-01,128.02734015187872,128.69103075802838,127.46944316985002,127.49829864501953,252000.0
2023-09-05,126.6614695743854,126.95003905741997,122.50611892134997,122.70811462402344,325300.0
2023-09-06,122.91971901854386,123.13132830124047,121.39031265265571,121.59231567382812,291100.0
2023-09-07,121.47688528995286,122.32334442871263,120.37071217704028,120.58232879638672,328600.0
2023-09-08,120.72661517649743,121.84240190476012,120.35147928747043,120.53423309326172,238800.0
2023-09-11,122.15021460292593,123.05439211199419,121.5923248683561,122.1694564819336,333500.0
2023-09-12,121.30374940797992,122.43877803875952,120.64004404886371,121.7077407836914,258000.0
2023-09-13,120.98630457594427,121.76543172080734,120.34184120084457,120.59193420410156,279300.0
2023-09-14,121.20756923679127,122.44840625475486,121.20756923679127,121.92898559570312,217900.0
2023-09-15,121.66925510218753,122.3521949487362,120.39956277617969,121.13059997558594,589200.0
2023-09-18,121.5442225254737,121.5442225254737,120.15910083878411,120.8516616821289,175100.0
2023-09-19,120.89975538209652,120.89975538209652,119.33187259288644,120.53423309326172,218600.0
2023-09-20,121.04403393623863,121.29412697753905,119.81281794618458,119.8801498413086,206200.0
2023-09-21,119.59160476870765,119.61083931064508,117.53316386592479,117.56201934814453,335700.0
2023-09-22,117.66781895592811,118.21609509335627,117.45620231716168,118.00447845458984,341200.0
2023-09-25,117.34076318501396,119.3992037620622,116.84058444889169,119.31263732910156,258800.0
2023-09-26,118.82208765283667,119.48579307972594,118.53352550013086,118.88941955566406,547000.0
2023-09-27,119.31264031088143,119.70701074637915,118.18723262251139,118.81245422363281,362400.0
2023-09-28,119.13949993050126,120.85166013877925,118.5623683479597,120.68814086914062,219300.0
2023-09-29,121.66927920790044,121.99632512715142,120.03407162752698,120.27454376220703,330900.0
2023-10-02,119.783963084746,120.69776148170621,119.26454246027548,120.28414916992188,244100.0
2023-10-03,119.29339878482428,120.53423572898005,117.82171067436374,118.1872329711914,236300.0
2023-10-04,118.8413150678333,119.90901178172992,117.66781004256849,119.49539947509766,208200.0
2023-10-05,119.23569473519102,120.16872773211533,118.11990791789228,119.03369903564453,466700.0
2023-10-06,118.89902522929134,121.86164325055658,118.68740860796868,121.59231567382812,491700.0
2023-10-09,121.02480176411956,122.3714470315645,120.89975891033677,122.10211944580078,275700.0
2023-10-10,122.39067273660791,123.70846243025989,121.68849834421273,121.71735382080078,322000.0
2023-10-11,122.66964721679688,122.83316651117178,121.82318792359678,122.66964721679688,212900.0
2023-10-12,122.37143953710256,122.54457973715071,120.29375713652479,120.6400375366211,189300.0
2023-10-13,121.19793048814316,121.84239391280202,120.62079895354378,121.16907501220703,324900.0
2023-10-16,122.50610354279256,122.57343543523135,121.36145403270736,121.88087463378906,275200.0
2023-10-17,121.20755913507936,123.44875352595633,121.20755913507936,122.62153625488281,314400.0
2023-10-18,122.03478544306672,122.80429176930639,121.46726746403726,121.94821166992188,287300.0
2023-10-19,121.2748918959895,122.61191619220571,120.61118654800225,120.938232421875,443900.0
2023-10-20,121.13062497565365,121.65966661177283,117.28307078897507,117.56201934814453,446500.0
2023-10-23,117.08105478916937,118.46617640474612,116.59048966054829,116.86943817138672,379000.0
2023-10-24,117.47543620540878,119.05293270920211,117.08106574877378,118.63932037353516,312100.0
2023-10-25,118.15677276144453,119.4596516517281,117.63561973271062,118.09886932373047,431300.0
2023-10-26,117.02762161826153,121.01346812446944,117.02762161826153,119.12187957763672,576000.0
2023-10-27,119.16048296205888,119.51756400540363,116.15903183159877,116.94075775146484,364000.0
2023-10-30,117.66457911449282,118.05061923829989,116.63192601709312,117.90585327148438,283100.0
2023-10-31,118.23397832287583,118.60071235470951,117.577712385893,118.00234985351562,422900.0
2023-11-01,117.847941489138,119.12186865336518,117.36539320930797,118.63932037353516,360500.0
2023-11-02,119.40175264455395,119.95185741255717,118.68758322153812,119.26663970947266,384300.0
2023-11-03,120.086951292021,121.57320070517726,120.086951292021,120.97483825683594,278000.0
2023-11-06,120.89763669523624,121.3415875698335,120.39578974927271,120.8204345703125,173500.0
2023-11-07,120.27033814314946,120.62741916445184,119.8360402653971,120.2027816772461,205000.0
2023-11-08,120.52126305068572,121.10997257693651,120.06767382506065,120.75289154052734,175800.0
2023-11-09,121.30299122840282,121.30299122840282,119.73953212154,120.0483627319336,118600.0
2023-11-10,119.90357848136097,121.39948089409748,119.56579620325637,121.33192443847656,195600.0
2023-11-13,121.01345529818798,121.1003178161299,120.02906006116073,120.1834716796875,183100.0
2023-11-14,121.55390364196714,123.39724152783667,120.93624245875796,123.38758850097656,267400.0
2023-11-15,123.3586407628021,124.30443862184565,122.90504420607215,123.25247955322266,388600.0
2023-11-16,123.19458405532637,124.13072158442283,122.41285079230998,123.09807586669922,217000.0
2023-11-17,124.07281379686883,124.57466814111162,123.15597499237893,123.46480560302734,162700.0
2023-11-20,123.00155090272261,123.1945746283093,122.01715567308845,122.87609100341797,213900.0
2023-11-21,123.0111901644302,123.82187499497151,122.7602630307982,123.44548797607422,160600.0
2023-11-22,123.96664452975432,124.69046691672392,122.91469286164748,124.08246612548828,174800.0
2023-11-24,124.46851389312098,124.46851389312098,123.62888453508685,124.04386901855469,65900.0
2023-11-27,123.35863193285543,123.8218814835977,122.42248716799214,122.56725311279297,367500.0
2023-11-28,122.56726027052797,122.57691329757223,121.10996243713889,121.22577667236328,218000.0
2023-11-29,121.25471341820227,121.98818875785147,120.55984281886107,120.994140625,331800.0
2023-11-30,121.07137144789151,122.69273410973697,120.45371018272209,122.46111297607422,301000.0
2023-12-01,122.00752090603291,124.05352116174625,122.00752090603291,123.62889099121094,218300.0
2023-12-04,123.00154595197841,124.38164160429274,122.4610942682931,123.93769073486328,192000.0
2023-12-05,123.77363433441964,124.1982791787773,121.48635282699652,121.59251403808594,178000.0
2023-12-06,121.9785577252861,122.85679915866584,121.48635640148973,121.95925903320312,179500.0
2023-12-07,121.83378385096688,122.67342048254547,121.59250971853534,122.07505798339844,254000.0
2023-12-08,121.94959920990867,123.04980867489485,121.2354298329936,122.87609100341797,265800.0
2023-12-11,122.81819302140134,123.22353181848027,121.93029857047753,123.11737060546875,338000.0
2023-12-12,123.19458223267412,123.62888011972512,122.25843735432503,123.030517578125,210300.0
2023-12-13,122.74097856816276,124.4878083169758,122.74097856816276,124.10176086425781,425000.0
2023-12-14,124.57466295525923,125.47219566747552,122.45144615272285,122.95330047607422,412900.0
2023-12-15,122.72168474321455,124.09212012074336,121.57321745592215,121.58287048339844,713000.0
2023-12-18,122.2873800147062,122.76992827805668,121.48634813039989,122.61551666259766,240500.0
2023-12-19,123.25248896561007,123.65783514364217,121.6311263427904,121.82415008544922,659100.0
2023-12-20,121.62146243272905,122.50935684330899,121.08101072784736,121.18717193603516,346400.0
2023-12-21,121.83378081634912,121.83378081634912,120.49229726249135,121.51530456542969,421900.0
2023-12-22,121.98820682835046,122.60586803857178,121.71798096926643,121.86273956298828,312200.0
2023-12-26,121.73728030157127,122.44180403483686,121.20647424478882,121.43810272216797,274700.0
2023-12-27,121.7179801620288,122.05576248364365,120.66602108831127,120.90729522705078,283100.0
2023-12-28,120.6177783132652,121.40915724389927,120.05802050881351,120.83009338378906,343600.0
2023-12-29,120.82044581458585,120.98451046958296,119.2473336428409,119.30524444580078,313500.0
2024-01-02,118.33048400507984,119.76847574725994,118.02165341555587,118.59105682373047,313100.0
2024-01-03,120.78182007354174,122.81817413640482,118.8516272073664,120.98448944091797,531700.0
2024-01-04,120.81077670302624,121.52494603089515,119.79742246182032,119.88428497314453,353300.0
2024-01-05,119.45964384127878,120.02905460628045,118.69721672111496,119.86498260498047,423000.0
2024-01-08,119.73952451966014,120.7914835515639,118.09886338668615,120.00975036621094,352400.0
2024-01-09,119.39209643843853,120.28963654792885,118.6779270344352,120.27998352050781,250300.0
2024-01-10,120.11591087750575,121.04240264450908,119.89394280330917,120.8204345703125,279600.0
2024-01-11,121.00379418819725,122.53830142244865,120.57915674328704,122.41283416748047,323100.0
2024-01-12,123.42620632136199,123.50341581821841,121.52496479911424,122.01716613769531,231700.0
2024-01-16,121.48635575334917,122.39354890156476,121.1292747284493,122.38389587402344,257500.0
2024-01-17,121.54425926799404,122.82783205612957,121.4960014962835,122.26808166503906,336900.0
2024-01-18,122.87609292611428,125.47219764873277,121.90134334518042,124.632568359375,444200.0
2024-01-19,125.18266753995223,126.87158633461526,124.05349172960442,126.234619140625,418000.0
2024-01-22,126.33113669376287,127.20937811767521,126.00300739017096,126.61102294921875,266200.0
2024-01-23,127.19975463545074,127.24801241820755,125.78106123440566,127.22870635986328,217800.0
2024-01-24,127.50855793954003,127.67262259421514,125.9837035460705,126.21533203125,294400.0
2024-01-25,127.42170423136226,127.75949393532106,125.82930071545499,126.66893005371094,332300.0
2024-01-26,127.08390439522177,127.96214577452949,126.81367854408161,127.10321044921875,219900.0
2024-01-29,126.47590503677381,127.9621472350077,125.93545332832512,127.63401794433594,187800.0
2024-01-30,127.42169552655902,128.44469550700896,127.03566279943983,127.63401794433594,228400.0
2024-01-31,128.14709571545094,128.53434368250345,125.03951017935186,125.73654174804688,537500.0
2024-02-01,126.29805168978267,126.9273093818835,125.47516261057311,126.3367691040039,298800.0
2024-02-02,125.81399845204739,126.54007181280666,124.58451009166825,125.94953155517578,344800.0
2024-02-05,125.01050388217256,127.25648364005461,123.96495623260543,126.48200225830078,319500.0
2024-02-06,126.31740568420186,127.20805395014796,125.17505729048875,126.9466781616211,369700.0
2024-02-07,127.21773359206935,128.1955070379212,125.24280583648746,127.59529113769531,393000.0
2024-02-08,127.4404150760117,130.5383255987766,127.34359937104924,127.90509796142578,620700.0
2024-02-09,127.89539518747246,134.76889516663638,127.3145306248391,134.52687072753906,650900.0
2024-02-12,134.72049474500278,135.98870051220734,133.12312449577541,133.21994018554688,491300.0
2024-02-13,132.32930021222504,132.9488822581375,130.67384635486445,131.59353637695312,275900.0
2024-02-14,131.91298811347036,133.0747171783735,130.85776515911542,132.79396057128906,335000.0
2024-02-15,132.7940023421707,133.41358447807835,130.27695637779738,130.73194885253906,471400.0
2024-02-16,131.05139603090558,133.5974980024858,130.7319219804335,133.1134490966797,453900.0
2024-02-20,132.76495920474014,135.66925320639436,132.58101822111487,135.23361206054688,373000.0
2024-02-21,134.6430432067918,135.6401827546635,134.5559179504535,135.53369140625,276300.0
2024-02-22,135.98871968077944,137.87650772141765,135.6014864111109,136.95681762695312,295700.0
2024-02-23,137.44085155268917,137.51830115254398,136.11456223867728,136.85031127929688,190300.0
2024-02-26,136.98584148427423,137.5279738997732,136.3081759649005,137.39244079589844,199200.0
2024-02-27,137.39243933350093,137.64413944601768,135.3400767046714,135.83380126953125,244600.0
2024-02-28,135.19485448974754,136.73414124839545,134.88507086916457,135.9306182861328,189600.0
2024-02-29,136.14360929042408,137.1117071682836,135.36912803373622,135.97903442382812,250600.0
2024-03-01,135.41751376903366,136.2984714673089,135.1077154081465,135.81442260742188,151400.0
2024-03-04,136.20166416122555,137.58603674491985,136.07580673652672,137.43115234375,260300.0
2024-03-05,137.73130314278708,138.64131760349056,137.2182123974122,137.97332763671875,190200.0
2024-03-06,138.3702046969849,139.05756060105247,137.93456366268825,138.50575256347656,184000.0
2024-03-07,139.8901458387967,140.5097279007667,139.25119768276474,140.0353546142578,250100.0
2024-03-08,140.09344450787563,140.44196032011527,138.40894895338388,138.52511596679688,185200.0
2024-03-11,138.23470289544156,138.80589192553307,137.4505459017938,138.18630981445312,226700.0
2024-03-12,138.24439416826982,138.2928020215548,136.9664977471601,137.86683654785156,242200.0
2024-03-13,138.43803533043018,138.43803533043018,136.4340650710984,136.65673828125,336800.0
2024-03-14,136.8503260525416,137.10202620024066,135.88222810784958,136.4340362548828,235200.0
2024-03-15,135.57242007632507,137.86682208776077,135.2820025310812,136.50180053710938,599500.0
2024-03-18,136.43402821831805,136.79223448171572,134.49783244298447,134.8173065185547,299700.0
2024-03-19,134.44943456936542,135.84349784138894,134.44943456936542,135.059326171875,253000.0
2024-03-20,135.17550421499809,135.6014696220955,134.70113096218498,135.50465393066406,220000.0
2024-03-21,135.8338212875163,137.08267591797204,134.85604767387457,136.63734436035156,255800.0
2024-03-22,137.47958214730536,137.9055476013454,136.55021640394727,137.07298278808594,276000.0
2024-03-25,136.69539997271303,139.45448448167053,136.66635822183974,138.39926147460938,316300.0
2024-03-26,138.27343080301986,139.7062116207552,138.07012373555634,138.63162231445312,314200.0
2024-03-27,139.08660656444317,140.5193871456138,139.08660656444317,140.04502868652344,218200.0
2024-03-28,140.1999450522203,140.71303575776633,139.06725750918295,139.2996063232422,247800.0
2024-04-01,139.2028031090346,139.2028031090346,137.5860812427115,137.7506561279297,204400.0
2024-04-02,137.3149905478121,137.3149905478121,135.91125167032422,136.1436004638672,202600.0
2024-04-03,136.18232831953642,136.6857433581489,135.40784705367142,136.38563537597656,258700.0
2024-04-04,137.3053243590496,138.1959726377349,136.47275958975655,137.22787475585938,403600.0
2024-04-05,136.86968595043953,138.20565100866335,136.45339617162944,137.20851135253906,288300.0
2024-04-08,137.1504324507475,137.83778848313548,135.91126827776824,136.02743530273438,312500.0
2024-04-09,135.94029261944223,136.59860681125565,134.91411130502746,135.83380126953125,242600.0
2024-04-10,134.5462205437176,135.74666706614912,134.0331299203233,134.95281982421875,200700.0
2024-04-11,134.8173099688125,135.57242515875745,134.03315302325444,134.69146728515625,265300.0
2024-04-12,133.76210007332836,134.51721533826313,131.6226117466809,132.8230438232422,299200.0
2024-04-15,134.18803080372464,135.349745158721,133.43291573437705,133.79110717773438,319600.0
2024-04-16,133.3941894593336,134.94315184926018,132.9779144955909,134.16867065429688,281700.0
2024-04-17,134.44945414271976,135.03030407595662,133.93636338762582,133.98475646972656,565400.0
2024-04-18,133.97507218918878,134.99157797196605,133.81049731342517,134.67210388183594,246600.0
2024-04-19,134.62367866886507,135.4562433737092,134.34293680453402,134.89474487304688,276600.0
2024-04-22,135.0980663323081,136.6470141255359,134.80763400482732,135.843505859375,298800.0
2024-04-23,135.31101172472623,136.65666685787943,135.0689873139289,135.6788787841797,417200.0
2024-04-24,135.88280137491373,136.80518972389316,135.58181289617383,135.94105529785156,559200.0
2024-04-25,135.7760094089554,137.14503597865468,134.8827479436081,136.1061248779297,694400.0
2024-04-26,137.87324676430742,144.194050138077,137.7761470024205,139.1645965576172,489500.0
2024-04-29,140.68894676515575,143.71828418532212,140.17435067690909,142.12594604492188,676700.0
2024-04-30,141.50454336149315,141.85408171786466,139.8733594266455,140.18406677246094,585100.0
2024-05-01,140.77634869572992,142.9318328954004,140.37826043918207,141.15501403808594,359600.0
2024-05-02,141.5239675984383,142.46577897675033,141.06762539181938,141.6793212890625,356500.0
2024-05-03,142.83474149980546,142.85416441513408,140.6307072933261,142.54345703125,303300.0
2024-05-06,143.46584874866832,144.74749451317692,142.88329461371845,144.70864868164062,260200.0
2024-05-07,144.00957355262796,146.00970404941293,144.00957355262796,145.36888122558594,392900.0
2024-05-08,145.36889477978409,146.48546798558442,145.13586423611673,146.4077911376953,223500.0
2024-05-09,146.6116820419674,147.3204628465896,144.3105630316223,144.7474822998047,299100.0
2024-05-10,144.6212448665183,144.66979474057337,143.7862374049322,144.17462158203125,186300.0
2024-05-13,144.21346995257653,145.13585840929454,142.59200470826642,143.57264709472656,167500.0
2024-05-14,143.9901297523649,143.9998338002847,143.18424931481326,143.60174560546875,137600.0
2024-05-15,143.66001677139636,144.02896319801914,142.50459798974526,142.99977111816406,211100.0
2024-05-16,143.08715481169418,143.60175086174465,142.17447055225648,143.25221252441406,235500.0
2024-05-17,143.5532250739488,143.86391760755848,142.85414835414977,143.37844848632812,169500.0
2024-05-20,143.30077614301211,144.09695263816212,142.7667571298435,143.86392211914062,163400.0
2024-05-21,143.64063969473372,144.3591246810753,142.8153360686792,144.27174377441406,280400.0
2024-05-22,143.7668346921676,144.50474243328088,143.18426581237048,144.4658966064453,283300.0
2024-05-23,144.33970165023453,144.62126725880347,143.27166351702041,143.42701721191406,171700.0
2024-05-24,144.16492024192416,144.50475458627656,143.0774740445457,143.7862548828125,162300.0
2024-05-28,143.32992330845792,143.48527700970283,141.58224602315815,142.44638061523438,318400.0
2024-05-29,141.41716447863772,142.4366527072403,140.31029535438608,140.63070678710938,229700.0
2024-05-30,140.91227152936236,142.7084983843772,140.78604481723752,141.89291381835938,328100.0
2024-05-31,141.844411074653,143.53384950734127,141.67935329682925,143.39791870117188,358900.0
2024-06-03,144.18433298516325,144.18433298516325,142.0288488421779,143.85421752929688,266200.0
2024-06-04,143.35904679128393,144.07754653057066,142.43665828749494,143.88336181640625,287900.0
2024-06-05,143.42700061426063,143.89304682966602,142.80560072193944,143.62118530273438,229200.0
2024-06-06,143.70858196047192,143.70858196047192,141.17443223714181,141.71817016601562,197600.0
2024-06-07,141.53367596430135,142.07739902580767,141.22296860610217,141.320068359375,179100.0
2024-06-10,140.62099421122554,141.57250958640344,139.80540960393014,141.35890197753906,125800.0
2024-06-11,140.6986648827164,141.50454540530546,140.15494183502784,141.27151489257812,147700.0
2024-06-12,141.9900071614803,142.0579651312444,139.88307305333473,141.5919189453125,221300.0
2024-06-13,141.65017286663635,142.27157271965928,140.8054613767583,141.5919189453125,232400.0
2024-06-14,140.8734504649213,141.1550309006414,139.50442375003365,140.5433349609375,141500.0
2024-06-17,140.6598313540665,142.41722736375868,140.3685617068692,142.07740783691406,303800.0
2024-06-18,142.22303735719075,143.39787921333664,142.2133333077604,142.42694091796875,219900.0
2024-06-20,142.3977978909361,143.24250937170754,141.436563753432,141.57249450683594,199900.0
2024-06-21,141.63079079319488,142.86388680635972,141.08706761693662,142.5823211669922,444100.0
2024-06-24,142.94153910100914,143.92218146002028,142.4075200677485,142.45606994628906,182900.0
2024-06-25,142.52405060848562,142.53376947494633,140.30060804472936,140.650146484375,194500.0
2024-06-26,140.05783894105218,140.58213906374502,138.80533514968837,139.53353881835938,192400.0
2024-06-27,139.68887329101562,139.69859215477817,138.1353810691403,139.68887329101562,377300.0
2024-06-28,139.60152272147332,140.1258377569006,136.01875763564942,136.71783447265625,435100.0
2024-07-01,137.27127014880173,137.36835509564582,134.36815911737452,134.5137939453125,306400.0
2024-07-02,134.45551784033776,136.41681715340104,133.7564411508368,136.31971740722656,259400.0
2024-07-03,136.7858055226286,137.2906828198518,136.48481699130676,137.1159210205078,143300.0
2024-07-05,136.89261727770193,137.3295366167457,135.66922534996536,136.8052215576172,207000.0
2024-07-08,137.53340696834337,138.35871046567937,137.38777214662196,137.39747619628906,249300.0
2024-07-09,136.766360792669,137.16444902591755,135.68861875591176,135.97018432617188,238400.0
2024-07-10,136.65956823532298,137.51399869592782,136.48480644947725,137.18386840820312,142000.0
2024-07-11,137.09648258623827,139.13545890652216,136.65956332198957,137.9606170654297,244500.0
2024-07-12,139.24225471520856,141.26180800557879,139.24225471520856,140.38795471191406,263900.0
2024-07-15,140.5530072875592,141.4559875097571,138.98009215801966,139.26165771484375,319900.0
2024-07-16,139.66948303288666,141.07734063154754,139.66948303288666,140.3588409423828,178800.0
2024-07-17,140.14525433481012,141.53370404227726,140.14525433481012,140.650146484375,242300.0
2024-07-18,140.4074042597719,142.97068107315562,140.39770020918226,142.02886962890625,434200.0
2024-07-19,142.32981907788866,142.32981907788866,140.45591556995473,141.69871520996094,251200.0
2024-07-22,141.74727638845377,143.27164169328665,141.02877677052334,142.9123992919922,235700.0
2024-07-23,143.57265645199828,144.1940564353192,141.43659493529168,141.79583740234375,234500.0
2024-07-24,141.8249684790197,142.36869157146538,139.718019272778,139.9510498046875,250600.0
2024-07-25,139.1134168154453,140.30167233708127,137.54531009340042,137.80828857421875,558100.0
2024-07-26,139.40560564885226,147.35326223129871,138.64590329069,142.84375,562800.0
2024-07-29,142.76583084099468,144.48977767817135,141.39251700694314,143.95408630371094,390900.0
2024-07-30,143.54501837821707,144.05147671755117,141.62627871162664,141.95742797851562,411000.0
2024-07-31,142.687920277237,144.9767768202367,141.62628675803276,143.15542602539062,280600.0
2024-08-01,143.05804117385702,145.64881403519908,141.64575972559882,143.20413208007812,335300.0
2024-08-02,142.76585813776398,143.1749275760007,140.0094955037422,141.89901733398438,213500.0
2024-08-05,139.69779019041522,139.69779019041522,135.85057640594786,137.01934814453125,448500.0
2024-08-06,137.65245225788104,142.28858689391723,137.4381756914255,141.1587677001953,476000.0
2024-08-07,142.21066611828329,143.42813984840885,139.73676603783363,139.86338806152344,353600.0
2024-08-08,140.70101663202263,142.356778003838,140.70101663202263,141.7723846435547,268600.0
2024-08-09,141.62630065454624,141.62630065454624,139.73677887394297,140.20428466796875,263200.0
2024-08-12,140.22376060481798,140.42828787630694,139.05498875394557,139.5614471435547,221100.0
2024-08-13,139.7757349256636,141.51916583268488,139.37641479063032,140.6133575439453,212000.0
2024-08-14,140.37960449405662,141.04190311093822,139.75625849980418,140.15557861328125,115700.0
2024-08-15,141.22696922822865,143.50607675102486,141.22696922822865,143.18466186523438,277500.0
2024-08-16,142.30807861002003,143.01907915033655,141.8210890883735,142.90220642089844,250600.0
2024-08-19,142.51264091252753,143.8859402629572,142.12304032304087,143.14572143554688,191200.0
2024-08-20,143.15544136166255,144.45083532458932,143.15544136166255,144.25604248046875,387200.0
2024-08-21,144.31447092085256,145.6780504782827,143.6229541329459,145.4442901611328,267300.0
2024-08-22,145.6780688711514,146.48645848882754,144.80147871746917,145.1131591796875,200400.0
2024-08-23,145.7657034384913,146.6130604286141,145.5514268655365,146.52540588378906,221400.0
2024-08-26,146.75917453354265,148.69739843644913,146.23323231972114,146.25271606445312,235500.0
2024-08-27,146.10657244845748,147.5967590072151,145.9409978154554,147.26560974121094,208300.0
2024-08-28,147.00262825791697,148.01557463659083,147.00262825791697,147.5967559814453,249000.0
2024-08-29,148.5805139173331,148.93114698600922,147.27538549682706,148.31753540039062,187100.0
2024-08-30,148.23959762370004,149.4473369078232,147.69417177336692,149.20384216308594,178500.0
2024-09-03,148.15194689459446,148.41492538696468,145.83387210929124,146.13580322265625,362400.0
2024-09-04,145.7072902273948,146.97345126291708,145.7072902273948,146.80787658691406,175800.0
2024-09-05,147.1487592794206,147.81105791158635,146.04815817755215,146.79812622070312,200600.0
2024-09-06,146.46697415286368,149.13566723576417,146.46697415286368,148.41493225097656,319100.0
2024-09-09,148.59998302653705,149.0772232245831,147.49938200179562,147.9571533203125,241500.0
2024-09-10,147.91819898327566,148.81425795867298,147.49939511007815,147.56756591796875,158100.0
2024-09-11,146.86629136229539,146.95396076989897,144.76250795288001,146.9149932861328,178000.0
2024-09-12,146.9637098345748,148.05456170073086,146.06765082141203,148.00587463378906,200400.0
2024-09-13,148.229880848657,149.02853597846607,147.94741858852652,148.31753540039062,138600.0
2024-09-16,149.05773552118288,149.18435754345714,148.11298958996787,149.00904846191406,182900.0
2024-09-17,149.9927649627968,151.5219191158579,147.9181849513857,149.04800415039062,259900.0
2024-09-18,149.75902346233676,151.44401803275537,148.73635728036453,149.0869903564453,214200.0
2024-09-19,150.98625109226774,154.67762550954814,150.98625109226774,152.81732177734375,412400.0
2024-09-20,152.2426893806918,152.2426893806918,150.46030562608314,151.8531036376953,663300.0
2024-09-23,152.1063064527266,152.82705629994214,150.71352354488388,151.9017791748047,315800.0
2024-09-24,152.11603410552289,152.99262412844,151.96994319924016,152.55433654785156,246200.0
2024-09-25,153.2068961113986,153.7620564003903,151.8140984456662,153.05105590820312,284100.0
2024-09-26,153.83025116800434,154.92110293146314,153.59649084937433,154.25880432128906,371600.0
2024-09-27,154.55100141706893,157.3463316298126,154.1419319653425,155.72952270507812,354300.0
2024-09-30,155.14512315625234,156.2457242868971,154.7944900883672,156.02171325683594,289800.0
2024-10-01,156.36256380130536,156.36256380130536,154.9113447728447,155.80740356445312,192200.0
2024-10-02,155.70028846125726,155.94378321896212,153.84973424739667,154.61917114257812,186900.0
2024-10-03,153.8789526282023,156.2846820263738,152.564074990201,154.80422973632812,367000.0
2024-10-04,155.7782195226645,157.2684063556804,155.18409167761138,156.4015655517578,350500.0
2024-10-07,155.2425276346262,155.48602240881075,153.89843172537022,154.5607452392578,223300.0
2024-10-08,154.16140851662,154.88215839036292,153.0121203289736,154.541259765625,205900.0
2024-10-09,154.2296012026817,155.88536275157466,154.00557530229472,155.54446411132812,152600.0
2024-10-10,153.93738118810276,155.2327750185027,153.93738118810276,155.07693481445312,168500.0
2024-10-11,156.75218568056042,157.70668095780067,156.17754162622376,157.3463134765625,194400.0
2024-10-14,160.6968029731812,163.394714143239,159.20661626974442,162.8395538330078,469700.0
2024-10-15,162.96617430440529,165.2452816100452,162.15776994657773,164.290771484375,397300.0
2024-10-16,164.31023937535176,164.79722883103554,161.60257919068917,161.71945190429688,330000.0
2024-10-17,162.63500734074424,163.94015048027507,162.18698532860228,163.52133178710938,238200.0
2024-10-18,164.6998366981898,164.6998366981898,163.41417742620754,164.2420654296875,171500.0
2024-10-21,164.0862524476999,164.1057361900711,161.97271968352462,162.00193786621094,217900.0
2024-10-22,161.4078288401736,162.04090935440306,160.52150423085823,161.4954833984375,228500.0
2024-10-23,162.17724687078498,163.6089972685699,161.83636311905678,163.28758239746094,318100.0
2024-10-24,164.38137299354142,164.39113363211433,162.2621371858914,162.6527862548828,547300.0
2024-10-25,164.9673259462908,165.8755720020447,160.75818090850115,164.9575653076172,518900.0
2024-10-28,165.92439581087592,167.3990718969887,164.81107199246878,165.14312744140625,350000.0
2024-10-29,165.07475181943673,165.52399452591067,163.7172779631245,164.75247192382812,338100.0
2024-10-30,164.41067173516717,166.21737340703038,164.18604292971634,165.0747528076172,290300.0
2024-10-31,165.1333689439496,166.29552588082868,163.9321545452615,163.98098754882812,329900.0
2024-11-01,164.16653293752452,166.98890749293048,163.69775401702358,165.4458770751953,316300.0
2024-11-04,165.66073715780885,166.57874395431327,164.24465460053625,164.32278442382812,191800.0
2024-11-05,163.81495853194275,166.37364684373878,163.81495853194275,166.32481384277344,206200.0
2024-11-06,171.05154898002016,171.05154898002016,168.1119872286225,169.10812377929688,264100.0
2024-11-07,170.12376575088302,171.3542916404713,169.4792059898356,170.62184143066406,412300.0
2024-11-08,170.61209897781401,173.6786238548333,170.40702122427004,171.6472930908203,309200.0
2024-11-11,172.19418764538844,173.86416596467407,171.78400236870633,172.0281524658203,189100.0
2024-11-12,172.51646680557812,173.09267240733516,170.85624898942092,171.5886993408203,179800.0
2024-11-13,171.39337158203125,172.26254534897026,170.95390437883552,171.39337158203125,168400.0
2024-11-14,171.05154146977196,171.67656508355398,169.84056660029717,170.026123046875,198200.0
2024-11-15,168.92257425336157,169.69408202115162,162.28168847937133,162.59420776367188,620500.0
2024-11-18,162.4965219370304,163.8930681030405,160.4847277204419,162.7895050048828,384400.0
2024-11-19,162.52583437609178,163.74658485803732,162.31098109913023,162.99459838867188,287600.0
2024-11-20,163.0922544076903,164.98686142400987,161.77383800717232,164.78176879882812,221800.0
2024-11-21,164.74271987680694,166.24667789967594,163.81495249958823,165.90487670898438,205100.0
2024-11-22,166.19786939767596,168.04365868677968,166.19786939767596,167.4967498779297,241600.0
2024-11-25,168.0241100492806,169.94801412387145,167.7213662946961,168.4635772705078,270100.0
2024-11-26,168.81513216055757,168.81513216055757,167.1549145944536,168.01431274414062,140300.0
2024-11-27,168.62961579132386,169.81130901787213,167.50653111545105,167.71160888671875,167200.0
2024-11-29,168.55145899910121,169.43040829774364,168.06315880043525,168.91281127929688,117300.0
2024-12-02,168.93233680546206,169.05929962886407,166.84241249869427,168.7174835205078,170900.0
2024-12-03,169.39135453061394,169.39135453061394,167.08657674385032,168.3659210205078,160100.0
2024-12-04,167.86782016783718,168.84442043989435,167.02794333779852,168.5514373779297,173400.0
2024-12-05,167.98503908384095,168.40498502885572,166.5396745813458,167.09634399414062,245000.0
2024-12-06,167.5846236743002,168.61004210605205,166.85217342205542,167.1451416015625,209200.0
2024-12-09,167.54556559711838,169.4108759749143,166.24668525088177,166.7935791015625,301700.0
2024-12-10,166.7252406375411,167.36002500978458,164.2544425337756,166.91079711914062,287000.0
2024-12-11,167.85806889036164,170.02612280736926,167.73110607935809,168.2779998779297,418600.0
2024-12-12,167.65298456324717,168.5612306607672,166.78381082569527,167.62368774414062,178300.0
2024-12-13,166.91076951474722,166.99865996989303,165.8462787089003,166.21737670898438,153200.0
2024-12-16,166.15878101655767,166.93028872730167,163.66844717273165,163.70751953125,236100.0
2024-12-17,162.9946031274387,163.0043786686916,159.02960783108298,159.2737579345703,511900.0
2024-12-18,159.85973142770067,160.5726455898807,154.214981970008,154.50796508789062,468600.0
2024-12-19,154.80093483209816,157.78934478191135,154.5274878931726,155.1525115966797,404700.0
2024-12-20,155.00601023435632,156.0412042310304,153.7852597851201,154.4786376953125,730200.0
2024-12-23,153.49228296319632,155.1817974814259,153.28720522432621,154.81069946289062,194900.0
2024-12-24,155.0645922806042,155.68961586782322,154.22471543824068,155.6212615966797,100500.0
2024-12-26,154.7130496409685,155.89474280440862,154.7130496409685,155.13299560546875,164500.0
2024-12-27,154.1270910423129,155.84590247939389,153.92199838988887,154.44935607910156,145000.0
2024-12-30,153.32626257404377,153.80480213396478,151.3730617769222,153.0625762939453,221700.0
2024-12-31,153.59971586271843,154.54701948074276,152.52544941905987,153.42393493652344,317100.0
2025-01-02,153.96106053123728,154.4103033111957,149.85934147374135,150.552734375,239400.0
2025-01-03,150.43551553521377,152.07621191768425,149.29289488218893,151.86135864257812,250700.0
2025-01-06,150.39646609155173,151.02148977014832,147.89637137716537,149.34173583984375,369000.0
2025-01-07,152.27153842764793,152.40826189282907,149.0292327240345,149.8397979736328,361200.0
2025-01-08,149.31242715408106,150.65036486716312,148.53114389248458,150.54293823242188,228600.0
2025-01-10,149.1463999140004,150.68943018558076,149.0096764672395,149.85931396484375,350800.0
2025-01-13,149.351489060231,151.08007590647148,149.351489060231,150.28903198242188,349300.0
2025-01-14,151.18751987696325,151.8125435961652,149.88863943358058,150.99220275878906,196900.0
2025-01-15,152.46686153360938,153.2481448947014,150.56249358589434,151.9199676513672,206100.0
2025-01-16,152.24222469159,153.4922719205697,151.67579471256195,152.75006103515625,346300.0
2025-01-17,153.29695885699005,154.2540230320317,152.03713605455528,152.4375457763672,231900.0
2025-01-21,153.0528143054371,156.50997312910235,153.0528143054371,156.0900421142578,270900.0
2025-01-22,155.6115107453754,156.98852094407073,154.6349103040437,155.34783935546875,280000.0
2025-01-23,154.75208846096064,156.07048991099873,154.03915952023607,155.8849334716797,149800.0
2025-01-24,155.91424200320077,156.71506145375167,153.54111027377883,154.59584045410156,329600.0
2025-01-27,154.54699783386062,155.20131824817142,152.98443138953712,154.75209045410156,317000.0
2025-01-28,153.88294176224863,156.59788985115384,153.88294176224863,154.71304321289062,204300.0
2025-01-29,155.0646061385479,155.10367849846844,152.95514575501196,153.43368530273438,265800.0
2025-01-30,154.12706586283983,154.96692781170574,152.9160761312112,154.4298095703125,274200.0
2025-01-31,154.20518277543422,155.66032259995123,153.09185901964062,153.4727325439453,834100.0
2025-02-03,150.9629044447037,153.08212570452554,150.53319784792123,152.33013916015625,364600.0
2025-02-04,152.43756037769683,154.75211357303183,152.43756037769683,154.0098876953125,302400.0
2025-02-05,155.01866189479728,156.3702319730873,154.52896432375118,155.05784606933594,262600.0
2025-02-06,156.5465285972017,156.5465285972017,152.16863076212493,153.22637939453125,446600.0
2025-02-07,154.37226642227148,154.64649588233073,139.11328743464438,140.22979736328125,1221500.0
2025-02-10,141.2875312819042,141.62053697254157,137.99676315893876,140.32772827148438,621900.0
2025-02-11,139.33854663703144,140.1220657147679,137.3699528993658,139.35812377929688,377300.0
2025-02-12,138.06534960690843,140.53342982167348,137.0467701779134,138.78030395507812,423500.0
2025-02-13,139.80865498326042,140.8174307728779,138.54524183950096,139.8282470703125,665900.0
2025-02-14,140.72928446288225,142.3158997444021,139.7792700193002,141.80661010742188,512800.0
2025-02-18,141.806629148029,144.25511722944964,140.93496798881864,143.87315368652344,489600.0
2025-02-19,143.12878909814165,144.45097836650277,142.60971092774975,144.01023864746094,331000.0
2025-02-20,143.94170202111488,144.3824268363581,142.91333415595835,143.6576690673828,283100.0
2025-02-21,144.0004768600077,144.3530597341893,142.20818182828341,143.32469177246094,451900.0
2025-02-24,143.16798872554835,144.2551180375646,141.38549716336897,142.6097412109375,353300.0
2025-02-25,142.8741632870377,145.27367831527678,142.7174564829414,144.6664581298828,336700.0
2025-02-26,143.6282730672493,146.10614126129204,143.59889241233037,143.6184844970703,735600.0
2025-02-27,143.21694635144803,144.14736874046284,142.3648773665291,142.6293182373047,262800.0
2025-02-28,143.14838730085012,143.9221028321513,141.64991403633834,143.72622680664062,348700.0
2025-03-03,143.9417092483485,145.7731734330009,142.6880846270143,143.5695343017578,394100.0
2025-03-04,142.54117057614394,144.90151659055175,142.14941847460233,142.9329376220703,490100.0
2025-03-05,143.0406850641383,145.78299486445496,143.0406850641383,145.38143920898438,445100.0
2025-03-06,144.5195432997619,148.37836251128888,144.02984573371802,148.0355682373047,471700.0
2025-03-07,147.40874233764586,150.20002418408012,146.10614513893535,149.63197326660156,480200.0
2025-03-10,148.93662196596816,150.82684736023063,147.14432711634848,147.467529296875,391100.0
2025-03-11,147.24225796213827,147.45772608292995,144.23552273099082,144.84274291992188,304000.0
2025-03-12,145.18552675241813,145.18552675241813,142.56074026251753,143.02105712890625,299700.0
2025-03-13,143.39326333992943,144.1669790183789,140.79785693906416,141.77725219726562,238400.0
2025-03-14,142.23754924682325,143.86334873443155,141.5617642221919,143.63809204101562,223600.0
2025-03-17,143.49116498279625,144.9504690034165,142.85456417100727,144.79376220703125,225200.0
2025-03-18,144.35305965504074,144.49017438690367,142.77623276642447,143.2855224609375,219900.0
2025-03-19,143.32466483055046,144.42159742424096,142.47259593827573,143.95147705078125,279600.0
2025-03-20,143.1190055816075,144.38241863949617,140.76844845978337,142.20816040039062,332800.0
2025-03-21,141.0329025919921,142.4628260965788,139.42669513246977,141.8360137939453,601900.0
2025-03-24,142.7468386396778,145.1267616063011,141.92415032610805,144.94068908691406,463800.0
2025-03-25,145.43039772394542,146.15514060303397,142.92313347424803,144.17677307128906,325200.0
2025-03-26,144.02005068183723,145.63604659931275,143.28550436582418,145.49893188476562,630400.0
2025-03-27,145.22471455574868,146.80154137661276,144.0004705937233,146.27267456054688,312700.0
2025-03-28,146.2138845778836,146.90926165859608,142.7566211490686,143.9025115966797,239800.0
2025-03-31,143.5597178840155,146.0179939025075,143.08961247829677,145.3226318359375,372500.0
2025-04-01,145.81233341659282,146.93863169683007,144.3432409061711,146.02780151367188,240000.0
2025-04-02,144.95049129591143,148.01600308998087,144.95049129591143,147.42835998535156,247600.0
2025-04-03,143.73602588355362,146.9582442746014,143.44221929600363,145.60667419433594,352900.0
2025-04-04,142.22778665727026,144.91133515916854,137.15451123234206,137.2916259765625,531600.0
2025-04-07,133.53071403995318,139.19161608543078,128.1538449204054,131.8755340576172,629900.0
2025-04-08,134.5493112573588,136.43953673434598,128.57499483049722,130.9059600830078,473800.0
2025-04-09,130.43582718258966,141.44423305934052,128.6141667138947,140.7880401611328,491800.0
2025-04-10,137.11531475806592,140.41587148111097,134.73539182521205,137.85964965820312,309000.0
2025-04-11,137.967394489513,141.72828334567205,136.8606880961678,141.14064025878906,203000.0
2025-04-14,142.79579899814664,143.38342705213157,140.82720541468416,142.78599548339844,249300.0
2025-04-15,143.08963340422312,143.5205547049289,140.80764097500608,140.97413635253906,250700.0
2025-04-16,141.09167989986338,142.8154251357412,139.63239051512733,142.01231384277344,307700.0
2025-04-17,142.40406737518916,142.7566502728756,137.81071607685502,140.86642456054688,390600.0
2025-04-21,140.347331860725,141.08187824351555,138.19266546008294,139.6421661376953,291600.0
2025-04-22,141.52259151328374,143.79479531157602,140.631338388382,143.0112762451172,217800.0
2025-04-23,144.823151790697,146.24328667195422,144.1865509396658,144.99945068359375,537000.0
2025-04-24,144.88190918887037,148.86805439769142,142.4628170537404,148.3391876220703,424500.0
2025-04-25,147.74177325388501,149.8474669754594,144.52935816394884,145.9886474609375,220500.0
2025-04-28,146.71339348881767,147.91804531450325,145.22470870652703,146.61544799804688,235200.0
2025-04-29,146.67419752698908,148.84845573678555,145.93965123839249,147.2030792236328,359900.0
2025-04-30,145.9984330116698,146.89947469973708,144.17675754933848,146.86029052734375,556200.0
2025-05-01,145.8288159699916,147.87209121737254,144.36513448698346,145.6618194580078,445300.0
2025-05-02,150.28867188742916,150.29848992197137,145.18047592473235,149.31614685058594,431600.0
2025-05-05,148.75619296258844,150.51459532270206,148.21591630528783,148.80531311035156,267600.0
2025-05-06,147.59706562017445,149.35545335071032,146.7817189664437,148.25523376464844,312000.0
2025-05-07,149.19827245283236,150.44583737765655,147.9605105733144,148.7169189453125,318400.0
2025-05-08,149.10985945249004,151.84078718705774,148.5695827139862,150.6521453857422,302500.0
2025-05-09,151.19244816342078,151.57556141857108,150.239574043545,150.6128692626953,231600.0
2025-05-12,153.0392239180569,153.82510139061208,150.98613045039815,152.7740020751953,352500.0
2025-05-13,153.55003919391905,153.55003919391905,150.49495171985274,150.92718505859375,339400.0
2025-05-14,150.90755987438112,150.90755987438112,148.30435635067707,149.78768920898438,350100.0
2025-05-15,149.65998239804614,152.7347062134107,149.65998239804614,152.2140655517578,278100.0
2025-05-16,152.4400115498671,154.3752288653149,151.86043265563208,154.23770141601562,278600.0
2025-05-19,153.59915663256362,155.5441916331963,153.5500364832347,155.28878784179688,185400.0
2025-05-20,157.4303150085624,157.4303150085624,155.12181749431372,155.73086547851562,388100.0
2025-05-21,154.09034056579173,154.8663850260189,153.07852836340334,153.6875762939453,319800.0
2025-05-22,153.5991755437167,154.4832783830283,152.81329802579143,153.88404846191406,278900.0
2025-05-23,152.38107111925262,153.422352504288,151.53625537470865,153.1865997314453,260500.0
2025-05-27,154.25733338201647,155.642440728808,153.9233403306864,155.3673858642578,352800.0
2025-05-28,155.36739421063615,156.03538034918074,154.4832763933447,154.6208038330078,364400.0
2025-05-29,155.04320652313712,155.8683710937722,154.05104543149486,155.5343780517578,232100.0
2025-05-30,155.44597065814978,155.9764293133438,153.77597547059216,155.60313415527344,335100.0
2025-06-02,154.75831599595244,156.26131463804512,152.51857506289332,154.1394500732422,349600.0
2025-06-03,153.4223262867034,154.66008809008275,153.24551173728634,153.50091552734375,397800.0
2025-06-04,153.72687442684654,153.7563435201819,147.63633532186296,147.7542266845703,831900.0
2025-06-05,148.90356481639972,150.6324832288513,146.41823804065308,149.79750061035156,482400.0
2025-06-06,151.64429332994897,151.75235166609104,149.52244371290558,150.60301208496094,264700.0
2025-06-09,150.0136191980335,150.4753066580511,148.6874500367206,148.9232177734375,388400.0
2025-06-10,149.47332984142486,150.2984944487939,148.19628081228734,149.8367919921875,323500.0
2025-06-11,150.29849644880608,150.8780752886444,148.92322208489034,149.23756408691406,380800.0
2025-06-12,148.73658814675593,151.8899014382214,148.73658814675593,151.6246795654297,337200.0
2025-06-13,150.2985051515068,151.00579343372206,148.06858195648448,148.49099731445312,361200.0
2025-06-16,148.5695758002576,150.20025395390124,148.4516844355203,149.01162719726562,346200.0
2025-06-17,147.9998142251002,148.58921108822153,146.49683048956007,146.81117248535156,379700.0
2025-06-18,146.4869866848808,148.0685595503163,146.4869866848808,147.05674743652344,383200.0
2025-06-20,147.63631565892786,148.10785106822402,146.35928181283484,147.64614868164062,570500.0
2025-06-23,146.85049066616682,151.22191491728302,146.85049066616682,151.07455444335938,356500.0
2025-06-24,151.84077408220156,151.84077408220156,150.47530283808342,151.1531219482422,246600.0
2025-06-25,151.14332567950171,151.80149382620556,150.0725751866268,151.2120819091797,264700.0
2025-06-26,151.80147000378724,152.83293320202972,150.41636270870066,151.75234985351562,658200.0
2025-06-27,151.92917357890042,153.35356794604172,151.50675828997822,153.06869506835938,643100.0
2025-06-30,153.27500695161754,153.73670945071478,151.88008141858438,153.66793823242188,315500.0
2025-07-01,153.66791520781175,156.97842145950187,153.20622776725833,156.20236206054688,338300.0
2025-07-02,156.2122087454969,157.69554147577566,155.84873159459067,157.4892578125,293500.0
2025-07-03,157.76431481113727,158.51089020387988,156.99808835850575,158.196533203125,235100.0
2025-07-07,158.1081326731942,159.50305819756994,157.71520139482857,158.1179656982422,313900.0
2025-07-08,158.05899691367227,159.70934109650693,157.02754866243734,157.22401428222656,342700.0
2025-07-09,157.10614887979318,157.1847381385685,155.3084739217681,156.90968322753906,252800.0
2025-07-10,156.37919368056006,157.52853325880866,155.5343780517578,155.5343780517578,361600.0
2025-07-11,155.76030371292907,155.76030371292907,153.864388917444,155.11195373535156,292000.0
2025-07-14,154.36538707594116,156.13360757296107,153.92333569902758,154.77796936035156,276600.0
2025-07-15,154.95479334988428,155.21019713887813,151.34959626569866,151.43800354003906,254200.0
2025-07-16,151.2022489800424,152.8624112264187,150.83878682765217,152.2435302734375,261900.0
2025-07-17,152.00777788286257,153.6482890740105,151.78182817574609,153.27499389648438,397700.0
2025-07-18,154.08052265083427,154.43416676966828,152.18459265589,153.6188201904297,243100.0
2025-07-21,153.65812006565358,153.90370586328876,152.49896229571195,152.7052459716797,205900.0
2025-07-22,153.35357548550758,156.54619042612177,152.48910879729814,156.3595428466797,449900.0
2025-07-23,157.24368095923748,158.99225063096037,156.33009400189493,158.80560302734375,450500.0
2025-07-24,158.559320268112,161.82979531304568,157.40675735764995,159.406494140625,431900.0
2025-07-25,159.63305506440543,160.65753702914088,158.3819926877325,158.5888671875,296300.0
2025-07-28,158.79573614749467,159.56410142477418,155.80108366056007,156.33302307128906,308500.0
2025-07-29,156.67779828906407,157.21959813532774,154.8750906357904,156.45123291015625,388200.0
2025-07-30,156.43152305866946,156.55957390550213,152.60938790987095,154.4514923095703,580700.0
2025-07-31,153.456563501654,155.0031544025075,152.86550639902828,154.79627990722656,679700.0
2025-08-01,154.62883281758354,155.7616748420332,138.98567424542853,139.24180603027344,1012300.0
2025-08-04,140.98538123418317,140.98538123418317,135.03547356824112,137.05490112304688,839000.0
2025-08-05,137.26176707147744,138.9659752764255,135.63638251685612,138.12864685058594,540800.0
2025-08-06,138.21731427393004,138.6605996470306,135.4984842918658,136.4737091064453,515300.0
2025-08-07,137.71491162131494,139.37970798596095,136.83818640949156,138.39462280273438,564000.0
2025-08-08,138.59162361799454,139.9313399406848,138.48326365692378,138.65072631835938,428700.0
2025-08-11,139.222090228796,139.5077583171329,137.12385398637957,137.7838592529297,349500.0
2025-08-12,138.12864188918144,138.9856611656125,137.15340217271373,137.39967346191406,286100.0
2025-08-13,137.60654859738395,139.33044762978915,137.17310872138614,139.32058715820312,729900.0
2025-08-14,138.099116779735,138.099116779735,134.40504673975155,136.27670288085938,875800.0
2025-08-15,136.29640019144338,136.87759690021682,135.8137029921251,136.65103149414062,770500.0
2025-08-18,136.81848979115895,137.4883555774846,135.30146511966976,135.83340454101562,529500.0
2025-08-19,136.20773671589527,138.4241784468644,136.20773671589527,137.50804138183594,333100.0
2025-08-20,137.82326302031893,139.1432734762502,137.18294867232404,139.07431030273438,519200.0
2025-08-21,138.53254347475354,139.78359091939785,138.14836082862038,138.54238891601562,270400.0
2025-08-22,139.15312448451428,141.19225798353852,139.08417633944555,139.32058715820312,356500.0
2025-08-25,138.8674588166062,139.4979127296023,136.88744301904194,137.47848510742188,245800.0
2025-08-26,136.99581252262666,138.0695518344244,135.95160953453586,137.6262664794922,442900.0
2025-08-27,137.01548945470773,138.47342629437426,136.95638675089546,137.3602752685547,729100.0
2025-08-28,138.07938928608468,138.07938928608468,135.35069910089788,136.8184814453125,320800.0
2025-08-29,137.09431078109077,137.78386744151146,136.28654870208595,137.1928253173828,370700.0
2025-09-02,135.37040364310914,136.46384879424832,134.13904716800675,134.37547302246094,310600.0
2025-09-03,134.0503903916783,134.1488898889654,132.43485133034417,133.20321655273438,382300.0
2025-09-04,134.31638220454172,136.41460360260194,133.02590787820503,136.39491271972656,401800.0
2025-09-05,136.94654859153968,138.7197049562119,135.5772807659998,136.55250549316406,440800.0
2025-09-08,136.52295752982062,137.91193130257207,135.62652636886406,136.23728942871094,616100.0
2025-09-09,136.19786500295976,137.39967006705987,133.08500740809663,135.00592041015625,637100.0
2025-09-10,134.0996443251541,135.4098093593049,132.83873655402675,134.2178497314453,685100.0
2025-09-11,134.71038997723537,136.21756900629404,133.84351026282553,135.05517578125,477500.0
2025-09-12,134.58232620679007,135.00592063066784,133.20321303157323,133.2130584716797,261300.0
2025-09-15,133.9420357302436,134.13904976383114,132.62202517087903,132.8387451171875,298000.0
2025-09-16,132.77962562814162,133.40023410540573,132.0999294759084,133.19337463378906,474800.0
2025-09-17,133.4002434882413,135.02564317844585,132.18859283278562,132.6417236328125,377400.0
2025-09-18,132.88798558145595,133.48888814617573,132.07037810452255,132.49395751953125,254800.0
2025-09-19,132.65158018177598,133.0850200863436,131.35126046807318,132.4348602294922,877200.0
2025-09-22,132.11962230163485,132.92739938115005,130.691251766929,130.74050903320312,402100.0
2025-09-23,131.0261738005905,131.95215627068484,130.00169183165633,130.0509490966797,319700.0
2025-09-24,130.03125417731107,131.3217134615017,129.38109429893456,129.53871154785156,353300.0
2025-09-25,129.53868607860107,130.54347705387977,128.32703565709764,128.86883544921875,388700.0
2025-09-26,129.37123644965243,130.4548211118124,129.00675974879576,130.31690979003906,274400.0
2025-09-29,130.4252615354418,130.70108416159653,129.40077964275358,130.29721069335938,540600.0
2025-09-30,129.74557555443596,131.76498814664785,129.74557555443596,131.66648864746094,310400.0
2025-10-01,131.34141139667054,132.35604794922318,130.33662028487404,132.1393280029297,310100.0
2025-10-02,131.66648573117217,132.38559368725765,130.97692912730892,131.19363403320312,398500.0
2025-10-03,130.49421843532957,131.5876634476025,130.45480661565566,131.2330322265625,402000.0
2025-10-06,130.90797079558112,131.21334480064905,129.45004891757588,129.9130401611328,447100.0
2025-10-07,130.13960666531722,130.5336347337186,127.8739076939909,128.64227294921875,438800.0
2025-10-08,129.2234697553329,130.04109227782575,128.31719317203184,129.64706420898438,361300.0
2025-10-09,129.73571125193516,130.8587077217144,128.258083526899,128.66197204589844,554200.0
2025-10-10,128.98706384152214,130.04109723300053,127.95272133239104,128.97720336914062,426000.0
2025-10-13,129.0363213593292,130.37603789072034,128.21869880410003,128.27780151367188,311400.0
2025-10-14,128.10047027161394,129.10526136456485,127.11538509101302,127.86405944824219,337400.0
2025-10-15,127.86405674338184,128.44525338015197,125.95298912845,126.18941497802734,438300.0
2025-10-16,126.5243419047704,127.56852978216413,125.94313774513942,127.23360443115234,352700.0
2025-10-17,127.23361106421747,128.15959357922404,126.92823704995098,127.41091918945312,339700.0
2025-10-20,127.67688307805489,128.1497197271898,126.11060134384137,128.06106567382812,240500.0
2025-10-21,128.6619859078428,129.80468841247423,127.19420346493476,128.62258911132812,311600.0
2025-10-22,128.70137488096933,130.13960588126338,128.04136960320932,128.12017822265625,357500.0
2025-10-23,128.27838836608,130.0482160538345,128.19928781482736,129.29678344726562,378600.0
2025-10-24,129.27699821696652,129.41542040316887,127.09188897025071,127.42807006835938,489300.0
2025-10-27,127.68513804202082,128.43657062662018,127.00290900843953,127.32919311523438,521700.0
2025-10-28,127.2995238954293,127.65546879872885,126.03394536967222,126.65685272216797,413500.0
2025-10-29,125.84608767724626,126.06361040803851,122.02957306455488,122.9095458984375,651100.0
2025-10-30,122.642589736187,124.1059121119059,121.653855546966,122.958984375,702600.0
2025-10-31,113.99117408852003,116.76951495369767,102.06704129042897,114.70306396484375,2758200.0
2025-11-03,114.78215353846566,114.78215353846566,107.07003104374891,111.84561920166016,1661000.0
2025-11-04,113.0716415827989,114.69316503673943,111.26225622049985,112.89366912841797,1029100.0
2025-11-05,113.04197713771558,114.73271162837109,111.49954673475034,114.26800537109375,896900.0
2025-11-06,113.72420198995826,115.64234871180304,112.517952627641,114.84147644042969,880300.0
2025-11-07,114.9205721317626,115.60279355716192,113.39792065465342,114.91068267822266,697200.0
2025-11-10,114.68328006091402,115.45449154553131,112.71570107535919,115.06888580322266,514000.0
2025-11-11,115.64235215314066,118.16362740289492,115.64235215314066,116.93759155273438,484800.0
2025-11-12,117.0067994446968,118.32181771681981,116.58165098825971,116.8288345336914,547500.0
2025-11-13,116.96725913412712,120.50692184487997,116.96725913412712,118.8458480834961,679400.0
2025-11-14,118.42069332802943,119.33033453666947,117.05624283023447,117.27376556396484,521200.0
2025-11-17,117.1551218108406,118.14385608312521,116.24548809076526,117.99554443359375,820200.0
2025-11-18,118.31193671929118,118.75686408712447,116.72995598156568,117.96587371826172,817400.0
2025-11-19,118.16362983624596,118.16362983624596,116.38390520642318,116.67063903808594,598900.0
2025-11-20,116.67064242743679,118.26250518606629,116.04774256062495,117.24411010742188,507400.0
2025-11-21,116.79916971414367,120.86286792776397,116.79916971414367,120.1509780883789,509100.0
2025-11-24,119.48853689793538,121.02107805788862,119.08315976345784,120.10155487060547,740000.0
2025-11-25,121.0309595133857,122.68214385066395,121.0309595133857,122.04935455322266,543600.0
2025-11-26,121.63407548431789,123.11717675407199,121.63407548431789,122.41517639160156,538000.0
2025-11-28,122.23721179455744,124.65961521692697,122.23721179455744,123.34459686279297,315700.0
2025-12-01,123.47312464549341,123.55222519221778,121.64396787729149,121.89115142822266,536800.0
2025-12-02,122.37563109798752,122.46462110038372,119.4390968008952,120.2300796508789,325400.0
2025-12-03,120.08176229804191,122.86011045381893,120.04221956935034,120.68489074707031,543100.0
2025-12-04,120.82332005860296,122.6821452414219,120.55636513524256,120.64534759521484,708000.0
2025-12-05,120.61568357957054,122.11856379579517,119.26112254625717,120.53659057617188,537000.0
2025-12-08,119.55773823925648,120.72444490270962,117.95599365521366,118.71731567382812,496600.0
2025-12-09,118.25260671307173,118.49979025868578,114.06037589162156,114.41632080078125,640300.0
2025-12-10,114.86125658975384,116.47289825316335,113.83297205936897,115.84999084472656,734700.0
2025-12-11,116.63107937914778,117.33307972013586,115.84009658555017,116.6805191040039,389700.0
2025-12-12,117.18478420221768,120.26963788871947,116.32459020160839,120.10155487060547,656400.0
2025-12-15,120.11143594513233,121.08039125301917,119.12270172858626,120.95185852050781,588600.0
2025-12-16,121.2880193092629,122.45472593627359,118.17350515259987,121.44622039794922,644800.0
2025-12-17,120.73434038745187,123.19628656831932,118.72721105831677,122.23721313476562,567300.0
2025-12-18,122.2767604710972,122.72169540087228,120.65523693661119,121.23859405517578,457100.0
2025-12-19,121.95047437935206,122.92932668285609,119.89391294648267,120.02244567871094,1300400.0
2025-12-22,120.02244905131522,122.30642273678362,119.70605439556444,121.35723876953125,527800.0
2025-12-23,121.48577799610219,121.64397155088497,119.95323691666961,120.81343841552734,311700.0
2025-12-24,121.1496037277725,121.7823930301015,120.38828169146663,121.36712646484375,198000.0
2025-12-26,120.99141254975284,122.08890816765887,120.34873378036154,121.86149597167969,306000.0
2025-12-29,121.9010457403063,122.90955134918035,120.9419723175224,121.82194519042969,400200.0
2025-12-30,121.41656795360201,122.89966931682952,121.04084411378047,121.35723876953125,289800.0
2025-12-31,120.15097596397585,121.94058998507745,119.98289296138277,120.58602142333984,314300.0
2026-01-02,120.36850209754444,121.61430932967109,119.4193181494529,121.15949249267578,295100.0
2026-01-05,120.3882753233874,123.17650539661395,120.3882753233874,121.61430358886719,435700.0
2026-01-06,120.84309994356978,121.4659997987374,118.75687009500949,119.20179748535156,777200.0
2026-01-07,119.31056506295083,120.57614374825076,116.28504054694046,119.08316040039062,478500.0
2026-01-08,118.56900865138992,121.98014631699301,118.17351344536358,121.06062316894531,330000.0
2026-01-09,120.70467850674399,123.5621198728979,120.09166055886544,122.4547348022461,429100.0
2026-01-12,122.60303947816963,123.88839694168902,121.59453392415777,123.72030639648438,477300.0
2026-01-13,123.64121411549613,124.02681984811237,121.15948917361368,122.10867309570312,351900.0
2026-01-14,122.71179941985773,125.7274416797615,122.71179941985773,125.42092895507812,611700.0
2026-01-15,125.70766789113175,125.78676843900955,123.11718152395939,123.7005386352539,381000.0
2026-01-16,122.60303809087354,123.78951608727894,121.85159800331378,123.30503845214844,363400.0
2026-01-20,123.49290649216461,124.1158063396922,122.0493554255934,122.4250717163086,275100.0
2026-01-21,122.90955081825824,124.20479780070094,122.50417370291805,123.60166931152344,421000.0
2026-01-22,123.64121667891544,124.98589581561515,122.66236437418617,123.0677490234375,369700.0
2026-01-23,122.93921055756546,124.85735737798285,122.4745118058816,124.58051300048828,429500.0
2026-01-26,124.99577817123766,125.55935637440064,123.69064930373163,124.92656707763672,315400.0
2026-01-27,123.54233481410213,124.87713201390274,122.77112334791536,123.33470153808594,303100.0
2026-01-28,122.80078648003611,123.6609879626866,121.8614919932062,122.3064193725586,347800.0
2026-01-29,122.88978028418853,123.86862507511535,121.20892754069328,122.4547348022461,386000.0
2026-01-30,121.52532437660433,123.60166469190948,121.27814082612888,123.5423355102539,512700.0
2026-02-02,122.80078342815366,124.49152553193812,122.80078342815366,123.42369079589844,489100.0
2026-02-03,122.51406220907022,126.48877049938638,122.29653947125486,123.22594451904297,658700.0
2026-02-04,124.77433039015442,129.44927260782487,123.77184577350829,128.26812744140625,589400.0
2026-02-05,126.71975064755804,128.1192596554473,121.05225107397254,123.05722045898438,2144200.0
2026-02-06,126.58078326238557,134.97782150042084,126.58078326238557,133.31031799316406,1045700.0
2026-02-09,132.5857587104382,138.531180271334,132.2582131007177,137.43936157226562,1043400.0
2026-02-10,136.78427392403074,139.88104683101494,136.78427392403074,139.126708984375,622100.0
2026-02-11,137.99519392074043,139.50388475135443,137.56840169460276,138.9678955078125,584300.0
2026-02-12,139.11678651599092,140.94308767923593,138.3525134196047,139.46417236328125,572700.0
2026-02-13,139.46418324151318,141.8661694437224,139.3649366253535,141.51878356933594,471900.0
2026-02-17,138.2234773285034,142.55102629654255,138.2234773285034,140.59568786621094,614700.0
2026-02-18,140.41703714664675,142.04482998774162,139.791721402891,140.66517639160156,582000.0
2026-02-19,140.5956812663536,142.25326464590432,139.98030082414553,142.09445190429688,525500.0
2026-02-20,142.0547550361601,144.0597244456509,140.94309602664507,143.97039794921875,664500.0
2026-02-23,142.42200863639354,145.15154037209857,142.06468751245615,144.63540649414062,513500.0
2026-02-24,144.98279666295065,145.8165408414096,142.77931908758302,143.06715393066406,429800.0
2026-02-25,141.35004724560304,142.59074350649368,139.38477346379526,141.61802673339844,348900.0
2026-02-26,142.45176871915783,142.84878541602816,139.95052112226952,140.73463439941406,331300.0
2026-02-27,140.47658357934912,142.9381205686862,139.9505296087492,142.64036560058594,344600.0
2026-03-02,141.93563886113196,142.2830398395081,140.56590547180699,141.60809326171875,335000.0
2026-03-03,139.5931967078321,140.26814325067423,135.90088396317486,138.71974182128906,347300.0
2026-03-04,138.302888395737,138.47162126788456,134.9976717766612,136.02000427246094,389000.0
2026-03-05,134.9877396254558,135.32520533966746,133.40957777498073,133.72718811035156,452300.0
2026-03-06,133.0026313554941,133.0026313554941,130.02496050425168,131.096923828125,398500.0
2026-03-09,129.99519404049997,132.98278521657096,126.5807954705799,132.75450134277344,545700.0
2026-03-10,132.3574660154593,133.1316591702968,130.42196798314936,131.14654541015625,503100.0
2026-03-11,130.8190202738326,132.28800044532838,129.0721101988683,131.03738403320312,563800.0
2026-03-12,130.29295237048808,131.8016279987067,127.68252279954663,127.90088653564453,620600.0
2026-03-13,129.18127925269795,129.18127925269795,126.10436183607526,127.69244384765625,660600.0
2026-03-16,128.5162697582332,130.43191254892886,125.06217580985977,128.0894775390625,370700.0
2026-03-17,129.00262050471235,130.04480827067758,127.2855013216824,128.53611755371094,276700.0
2026-03-18,123.45423058912087,125.63786042046195,120.51626292882625,123.29542541503906,910500.0
2026-03-19,122.0944332187195,123.8909588849741,120.54603921873606,123.04728698730469,518500.0
2026-03-20,123.33512999241371,123.33512999241371,119.41452545613383,120.15894317626953,1481500.0
2026-03-23,122.5907105268858,125.39964092902298,122.07457667427936,123.21601867675781,455200.0
2026-03-24,122.24332284607306,124.28798782763778,121.95548040949986,123.2259521484375,405000.0
2026-03-25,124.50634549167631,125.62793211237509,122.78921864642815,124.88351440429688,337200.0
2026-03-26,124.28798636131239,126.3922023143744,123.19617519683187,123.76193237304688,442100.0
2026-03-27,123.01751427118627,123.28550132328671,120.85373975633635,121.08202362060547,381400.0
2026-03-30,121.64777727824665,123.01751071469691,120.19864504103799,122.44182586669922,562000.0
2026-03-31,123.46415851677581,126.01502957768723,122.67010992701152,125.08202362060547,557800.0
2026-04-01,126.39219982096562,127.68252689973865,125.38972274230011,125.80659484863281,380200.0
2026-04-02,124.2085781211438,126.14406117582702,123.32520302720033,125.07210540771484,297500.0
2026-04-06,123.66266876079281,125.25076596450165,123.66266876079281,125.07210540771484,461100.0
2026-04-07,124.38723692091199,126.22346576757812,123.8711106378232,124.67507934570312,376900.0
2026-04-08,130.4021481364575,131.68254004802253,127.19617800807119,131.03738403320312,645200.0
2026-04-09,130.24332882387228,131.45424955756675,126.39220287440348,130.42198181152344,424100.0
2026-04-10,131.2656579543429,131.71230555728022,129.87608426848973,130.521240234375,407400.0
2026-04-13,129.82646170678544,131.43439923843442,126.63042687940094,131.126708984375,396300.0
2026-04-14,130.2532453341348,131.73216065356567,129.99518597737963,130.03488159179688,315500.0
2026-04-15,129.83638260646234,130.05474636457114,127.64284005257605,128.6850128173828,407100.0
2026-04-16,125.95547520842267,129.35994576168224,125.95547520842267,127.33512115478516,393800.0
2026-04-17,128.6849981610624,131.31528307681364,128.6849981610624,129.65771484375,401100.0
2026-04-20,129.59817078840075,131.00759986778516,128.69494031122633,129.945556640625,403600.0
2026-04-21,129.72718762909471,131.2656538985368,125.74703979492188,125.74703979492188,310200.0
2026-04-22,126.33265459801167,126.33265459801167,122.04480863207884,123.62297821044922,458900.0
2026-04-23,124.44679072012924,126.49146323670142,123.51379231359721,124.01007080078125,440800.0
2026-04-24,123.48401687155638,123.48401687155638,121.65770810014067,123.1564712524414,440900.0
2026-04-27,123.11676900112164,125.29047121573323,122.62049050993973,123.8016357421875,359700.0
2026-04-28,125.18128618602746,125.70734016180099,122.79914797388655,124.8338851928711,354300.0
2026-04-29,124.20857785922294,124.96292327213307,121.87607050853111,121.9852523803711,448400.0
2026-04-30,122.51130595027864,125.14158341040145,120.97283963229869,122.75944519042969,764800.0
2026-05-01,126.26316859263083,127.5237125861033,117.0224658192811,118.13412475585938,989400.0
2026-05-04,117.79666211505766,120.84381172589876,116.58574139374336,119.7023696899414,739600.0
2026-05-05,120.00014032911528,122.78922301811379,119.92073395333378,121.1217269897461,628600.0
2026-05-06,122.74597925597982,125.94466800462597,121.24129756714204,122.19791412353516,917000.0
2026-05-07,122.5068295340525,126.02439054042098,122.13813047351475,124.66918182373047,749700.0
2026-05-08,124.78875603965518,125.4165335007669,119.9658058031768,120.56369018554688,794900.0
2026-05-11,120.79288554794945,120.79288554794945,119.0191585502766,119.53732299804688,706100.0
2026-05-12,120.02559365453983,120.43415267647454,116.72725880994862,117.6340560913086,696600.0
2026-05-13,117.58423293808002,118.33159035082205,116.01976505817387,117.46465301513672,679500.0
2026-05-14,118.31166263789773,119.73662439056804,116.62761485678391,117.57426452636719,531000.0
2026-05-15,117.49455009110837,117.5045093824967,114.06666843041747,114.26596069335938,447000.0
2026-05-18,115.19268785792543,116.90662874327987,114.76420263658683,115.40194702148438,433100.0
2026-05-19,115.48166685737739,115.63113986049136,112.05378509001822,113.20970153808594,575800.0
2026-05-20,113.66807993613209,115.04321484042606,111.15696237122292,114.85388946533203,562600.0
2026-05-21,116.08951407739181,116.08951407739181,112.37265332877841,115.1030044555664,345600.0
2026-05-22,115.39198749681162,116.38846404651633,114.30582410432685,115.82047271728516,405800.0
2026-05-26,115.79056648170686,116.55785764558959,114.96349676302546,115.96993255615234,344500.0
2026-05-27,116.52796630163347,117.69384200162881,114.32575411191587,114.89374542236328,464000.0
2026-05-28,114.40547144179769,115.93007936247552,112.95061657623215,115.58131408691406,510100.0
2026-05-29,114.65458561775299,116.84683851674723,113.34920381323532,115.44180297851562,559600.0
2026-06-01,114.28589767180515,114.72434218302038,111.63526640610465,111.9840316772461,706800.0
2026-06-02,111.5555436879482,112.65167394505289,110.84804626905223,111.78473663330078,452400.0
2026-06-03,111.29646253608045,113.61824699938008,111.29646253608045,112.13349914550781,372600.0
2026-06-04,114.54497230632394,115.35212345281656,111.14699134502068,112.15343475341797,337600.0
2026-06-05,112.69152600064275,114.18624078068318,111.58544405772433,112.96057891845703,466300.0
2026-06-08,111.86445781905672,112.24311616501637,110.55906839000053,111.54558563232422,422200.0
2026-06-09,112.88085932662787,115.74074968498803,112.27300803930216,115.49163055419922,444400.0
2026-06-10,115.74074928767203,116.13934141606836,112.97054577921195,114.26596069335938,496800.0
2026-06-11,114.70441351982215,116.59772043978674,113.85740999319688,116.16923522949219,395200.0
2026-06-12,117.48458764205596,118.05257897569324,115.96993901734801,117.30522155761719,342600.0
2026-06-15,118.28175862932584,120.31457162088154,117.14577601676713,117.66394805908203,576100.0
2026-06-16,118.08246565966249,120.62348378448296,113.36912845320511,120.22489166259766,474700.0
2026-06-17,121.19147655168894,121.918900150595,119.03908362900873,119.56721496582031,680500.0
2026-06-18,120.03556323646836,122.1182031608104,118.69032142639777,119.89605712890625,750600.0
2026-06-22,119.13873446752551,120.58363003359555,118.46113010611298,119.57718658447266,468400.0
2026-06-23,119.93591657137902,122.14809569936509,118.6604278207416,120.1850357055664,514100.0
2026-06-24,121.55021059109053,124.60939323702425,121.34094382937874,123.84210205078125,404900.0
2026-06-25,125.28699706013307,127.68850153642342,124.45991971828299,125.98452758789062,363500.0
2026-06-26,125.49625757990486,126.67210019838983,124.3204149614199,125.53611755371094,727400.0
2026-06-29,125.16742108368359,125.60587320209562,123.48337326752176,124.84854888916016,446600.0
2026-06-30,124.16097333332938,125.86494727656601,123.5033027809896,124.75885772705078,329300.0
2026-07-01,124.67914609082169,126.39307933521575,123.66273577346423,124.80868530273438,405600.0
2026-07-02,125.82508774888942,127.77818082996899,124.96812492977865,126.5325927734375,468400.0
2026-07-06,125.98452783897301,126.6023460237271,123.74245564919634,125.56600952148438,431400.0
2026-07-07,126.18381913439254,128.26645901687073,125.71548155556971,127.2400894165039,392700.0
2026-07-08,126.00445175211411,126.26353777363065,122.60647080352626,123.77234649658203,537700.0
2026-07-09,124.02146439127118,125.03787467960888,123.34386006655016,124.0114974975586,302100.0
2026-07-10,124.55956853594634,126.53259544666133,123.93179104742975,125.08769989013672,385200.0
2026-07-13,125.64571994715708,126.72191640641843,123.96167980892794,124.449951171875,391600.0
2026-07-14,127.96751666781715,128.95403392567474,127.5091383673285,127.82801055908203,739900.0
2026-07-15,129.25298235497795,130.3092450844948,127.99741214779503,128.65509033203125,466800.0
2026-07-16,129.56187796196684,134.6040465870392,129.56187796196684,134.27520751953125,579300.0
2026-07-17,135.351401437915,136.16850424088722,130.24944675099272,132.1427459716797,530800.0
2026-07-20,131.9135687694055,131.9135687694055,129.2928306127641,129.4522705078125,422900.0
2026-07-23,128.39600579528673,129.36258923692642,127.71839385448645,128.54547119140625,382800.0
2026-07-24,129.13338680160044,132.26232242316664,129.13338680160044,131.8936309814453,335900.0
2026-07-27,132.72071171310446,133.60757521827134,132.19258036761323,132.9000701904297,411200.0
2026-07-28,134.9030016293852,137.54365843276426,134.3549364800917,137.32443237304688,593100.0
2026-07-29,135.52081464440568,136.11870667337666,134.0759266469227,135.75,580000.0
2026-07-30,136.39999389648438,136.39999389648438,133.11000061035156,133.8699951171875,627000.0
2026-08-03,137.22999572753906,138.4600067138672,134.52999877929688,136.77000427246094,642500.0
2026-08-04,137.8699951171875,137.8699951171875,135.33999633789062,136.17999267578125,511900.0
2026-08-05,136.8699951171875,136.8800048828125,134.8699951171875,136.75,454800.0
2026-08-06,138.6199951171875,138.69000244140625,134.6699981689453,135.77999877929688,545000.0
2026-08-07,135.05999755859375,137.67999267578125,134.7100067138672,135.4199981689453,686300.0
2026-08-10,134.38999938964844,134.52000427246094,132.92999267578125,133.67999267578125,446700.0
2026-08-11,132.8000030517578,135.0500030517578,132.8000030517578,134.75,343700.0
2026-08-12,133.50999450683594,134.47000122070312,132.27000427246094,133.14999389648438,315100.0
2026-08-13,134.44000244140625,134.44000244140625,132.08999633789062,132.57000732421875,490800.0
2026-08-14,132.08999633789062,132.75,129.55999755859375,132.10000610351562,381600.0
2026-08-17,133.16000366210938,133.16000366210938,130.22000122070312,131.74000549316406,374500.0
2026-08-18,132.75,133.47000122070312,131.22000122070312,131.72999572753906,500100.0
2026-08-19,133.0500030517578,134.37989807128906,132.28500366210938,132.92999267578125,295829.0
