Date,Open,High,Low,Close,Volume
2023-09-05,126.66145382399552,126.95002327114638,122.50610368767913,122.70809936523438,325300.0
2023-09-06,122.91971901854386,123.13132830124047,121.39031265265571,121.59231567382812,291100.0
2023-09-07,121.47688528995286,122.32334442871263,120.37071217704028,120.58232879638672,328600.0
2023-09-08,120.72662281806907,121.84240961695716,120.35148690529728,120.53424072265625,238800.0
2023-09-11,122.15021460292593,123.05439211199419,121.5923248683561,122.1694564819336,333500.0
2023-09-12,121.30375701204977,122.43878571398,120.6400516113284,121.70774841308594,258000.0
2023-09-13,120.98631988463397,121.76544712808189,120.34185642798874,120.59194946289062,279300.0
2023-09-14,121.20756923679127,122.44840625475486,121.20756923679127,121.92898559570312,217900.0
2023-09-15,121.66927042883084,122.35221036140925,120.39957794288019,121.130615234375,589200.0
2023-09-18,121.54423019858976,121.54423019858976,120.15910842445712,120.85166931152344,175100.0
2023-09-19,120.89976303462733,120.89976303462733,119.33188014617576,120.53424072265625,218600.0
2023-09-20,121.0440416397049,121.29413469692169,119.81282557129398,119.88015747070312,206200.0
2023-09-21,119.59158924649155,119.61082378593244,117.53314861088099,117.56200408935547,335700.0
2023-09-22,117.66781895592811,118.21609509335627,117.45620231716168,118.00447845458984,341200.0
2023-09-25,117.34077068831786,119.39921139699219,116.84059192021189,119.3126449584961,258800.0
2023-09-26,118.82207240268929,119.4857777443957,118.53351028701881,118.889404296875,547000.0
2023-09-27,119.31264031088143,119.70701074637915,118.18723262251139,118.81245422363281,362400.0
2023-09-28,119.13949993050126,120.85166013877925,118.5623683479597,120.68814086914062,219300.0
2023-09-29,121.66925605429941,121.99630191131372,120.03404878510511,120.27452087402344,330900.0
2023-10-02,119.783963084746,120.69776148170621,119.26454246027548,120.28414916992188,244100.0
2023-10-03,119.29339878482428,120.53423572898005,117.82171067436374,118.1872329711914,236300.0
2023-10-04,118.8413150678333,119.90901178172992,117.66781004256849,119.49539947509766,208200.0
2023-10-05,119.2356870928497,120.16872002997181,118.11990034706665,119.03369140625,466700.0
2023-10-06,118.89902522929134,121.86164325055658,118.68740860796868,121.59231567382812,491700.0
2023-10-09,121.02480176411956,122.3714470315645,120.89975891033677,122.10211944580078,275700.0
2023-10-10,122.3906880798059,123.70847793865926,121.68851359938441,121.71736907958984,322000.0
2023-10-11,122.66962432861328,122.83314359247812,121.82316519334888,122.66962432861328,212900.0
2023-10-12,122.37144727599267,122.54458748699037,120.29376474402021,120.64004516601562,189300.0
2023-10-13,121.19794575056598,121.84240925638196,120.62081414328858,121.1690902709961,324900.0
2023-10-16,122.50611121132462,122.57344310797819,121.36146162958764,121.8808822631836,275200.0
2023-10-17,121.2075666764976,123.44876120681954,121.2075666764976,122.62154388427734,314400.0
2023-10-18,122.03477780825592,122.80428408635328,121.46725986473184,121.94820404052734,287300.0
2023-10-19,121.27489954662221,122.61192392718466,120.61119415676508,120.93824005126953,443900.0
2023-10-20,121.13060925368268,121.65965082113568,117.28305556639171,117.56200408935547,446500.0
2023-10-23,117.08104714596023,118.46616867111436,116.5904820493639,116.86943054199219,379000.0
2023-10-24,117.47543620540878,119.05293270920211,117.08106574877378,118.63932037353516,312100.0
2023-10-25,118.15677276144453,119.4596516517281,117.63561973271062,118.09886932373047,431300.0
2023-10-26,117.02759913247053,121.01344487283436,117.02759913247053,119.12185668945312,576000.0
2023-10-27,119.16047518784606,119.51755620789429,116.15902425320523,116.94075012207031,364000.0
2023-10-30,117.66455627314598,118.05059632201396,116.63190337620752,117.90583038330078,283100.0
2023-10-31,118.23398596724621,118.60072002279092,117.57771998783277,118.00235748291016,422900.0
2023-11-01,117.847941489138,119.12186865336518,117.36539320930797,118.63932037353516,360500.0
2023-11-02,119.40173736847875,119.95184206610242,118.68756803683264,119.2666244506836,384300.0
2023-11-03,120.086951292021,121.57320070517726,120.086951292021,120.97483825683594,278000.0
2023-11-06,120.89764432950582,121.34159523213705,120.39579735185238,120.82044219970703,173500.0
2023-11-07,120.27033050946704,120.62741150810513,119.83603265928002,120.20277404785156,205000.0
2023-11-08,120.52125543592591,121.10996492498091,120.06766623895945,120.75288391113281,175800.0
2023-11-09,121.30298351927328,121.30298351927328,119.73952451177246,120.04835510253906,118600.0
2023-11-10,119.90358602094061,121.39948852773999,119.56580372159614,121.3319320678711,195600.0
2023-11-13,121.01345529818798,121.1003178161299,120.02906006116073,120.1834716796875,183100.0
2023-11-14,121.55390364196714,123.39724152783667,120.93624245875796,123.38758850097656,267400.0
2023-11-15,123.3586407628021,124.30443862184565,122.90504420607215,123.25247955322266,388600.0
2023-11-16,123.19457641995044,124.13071389102679,122.41284320538445,123.09806823730469,217000.0
2023-11-17,124.07280612990299,124.57466044313415,123.1559673820683,123.46479797363281,162700.0
2023-11-20,123.00154326553826,123.19456697914006,122.01714809702534,122.87608337402344,213900.0
2023-11-21,123.0112053695368,123.82189030028484,122.76027820488832,123.44550323486328,160600.0
2023-11-22,123.96664452975432,124.69046691672392,122.91469286164748,124.08246612548828,174800.0
2023-11-24,124.46851389312098,124.46851389312098,123.62888453508685,124.04386901855469,65900.0
2023-11-27,123.35864729016578,123.82189689857947,122.42250240875883,122.56726837158203,367500.0
2023-11-28,122.56726027052797,122.57691329757223,121.10996243713889,121.22577667236328,218000.0
2023-11-29,121.25472106402746,121.9881964499266,120.55985042087056,120.99414825439453,331800.0
2023-11-30,121.07137144789151,122.69273410973697,120.45371018272209,122.46111297607422,301000.0
2023-12-01,122.00750584736005,124.05350585054758,122.00750584736005,123.62887573242188,218300.0
2023-12-04,123.00155352374544,124.38164926101614,122.46110180679085,123.93769836425781,192000.0
2023-12-05,123.7736188019192,124.19826359298767,121.48633758152975,121.59249877929688,178000.0
2023-12-06,121.9785500946843,122.85679147312398,121.48634880167852,121.9592514038086,179500.0
2023-12-07,121.83378385096688,122.67342048254547,121.59250971853534,122.07505798339844,254000.0
2023-12-08,121.94959163804015,123.04980103471416,121.23542230546796,122.87608337402344,265800.0
2023-12-11,122.81818541054639,123.22352418250709,121.93029101464404,123.11736297607422,338000.0
2023-12-12,123.19458223267412,123.62888011972512,122.25843735432503,123.030517578125,210300.0
2023-12-13,122.74097102242494,124.48780066384826,122.74097102242494,124.10175323486328,425000.0
2023-12-14,124.57466295525923,125.47219566747552,122.45144615272285,122.95330047607422,412900.0
2023-12-15,122.72167704235878,124.09211233389199,121.57320982713335,121.5828628540039,713000.0
2023-12-18,122.28738762368339,122.76993591705903,121.48635568953519,122.61552429199219,240500.0
2023-12-19,123.25247352791789,123.65781965517932,121.63111110817805,121.82413482666016,659100.0
2023-12-20,121.62147008946454,122.50936455594228,121.08101835055845,121.18717956542969,346400.0
2023-12-21,121.83378846573932,121.83378846573932,120.49230482765589,121.51531219482422,421900.0
2023-12-22,121.98820682835046,122.60586803857178,121.71798096926643,121.86273956298828,312200.0
2023-12-26,121.7372726533808,122.44179634238442,121.20646662994645,121.43809509277344,274700.0
2023-12-27,121.71799552312824,122.05577788737202,120.66603631665096,120.90731048583984,283100.0
2023-12-28,120.61776308128793,121.40914191198428,120.05800534752414,120.830078125,343600.0
2023-12-29,120.82044581458585,120.98451046958296,119.2473336428409,119.30524444580078,313500.0
2024-01-02,118.3304992303417,119.7684911575443,118.02166860108136,118.59107208251953,313100.0
2024-01-03,120.78182769015574,122.81818188143322,118.85163470226065,120.9844970703125,531700.0
2024-01-04,120.81077670302624,121.52494603089515,119.79742246182032,119.88428497314453,353300.0
2024-01-05,119.45965144487354,120.02906224611816,118.69722427618132,119.864990234375,423000.0
2024-01-08,119.73953213187556,120.79149123065565,118.09887089459961,120.00975799560547,352400.0
2024-01-09,119.39209643843853,120.28963654792885,118.6779270344352,120.27998352050781,250300.0
2024-01-10,120.11591846241205,121.04241028792013,119.89395037419895,120.82044219970703,279600.0
2024-01-11,121.0038017297732,122.53830905966294,120.57916425839741,122.412841796875,323100.0
2024-01-12,123.4261986038641,123.50340809589281,121.52495720049569,122.01715850830078,231700.0
2024-01-16,121.48635575334917,122.39354890156476,121.1292747284493,122.38389587402344,257500.0
2024-01-17,121.54425926799404,122.82783205612957,121.4960014962835,122.26808166503906,336900.0
2024-01-18,122.87610796985773,125.47221301031782,121.9013582695851,124.63258361816406,444200.0
2024-01-19,125.18269780321808,126.871617006182,124.05352171988879,126.23464965820312,418000.0
2024-01-22,126.33112908123387,127.20937045222468,126.00299979741455,126.61101531982422,266200.0
2024-01-23,127.19973175247551,127.24798952655084,125.78103860665047,127.22868347167969,217800.0
2024-01-24,127.50855793954003,127.67262259421514,125.9837035460705,126.21533203125,294400.0
2024-01-25,127.42171190609713,127.75950163040133,125.82930829427782,126.66893768310547,332300.0
2024-01-26,127.0838891387504,127.96213041262492,126.81366332005095,127.10319519042969,219900.0
2024-01-29,126.47591259694148,127.96215488401634,125.93546085618699,127.63402557373047,187800.0
2024-01-30,127.42170314326185,128.4447031848622,127.03567039306735,127.63402557373047,228400.0
2024-01-31,128.14709571545094,128.53434368250345,125.03951017935186,125.73654174804688,537500.0
2024-02-01,126.29805168978267,126.9273093818835,125.47516261057311,126.3367691040039,298800.0
2024-02-02,125.81399845204739,126.54007181280666,124.58451009166825,125.94953155517578,344800.0
2024-02-05,125.01046617900383,127.25644525949836,123.96491884477388,126.48196411132812,319500.0
2024-02-06,126.3173980926261,127.20804630504496,125.17504976756723,126.94667053222656,369700.0
2024-02-07,127.21775641252626,128.1955300337722,125.24282830267967,127.5953140258789,393000.0
2024-02-08,127.44042267768842,130.53833338524018,127.34360696695101,127.90510559082031,620700.0
2024-02-09,127.89540969408253,134.7689104528772,127.31454506556426,134.52688598632812,650900.0
2024-02-12,134.7205256063229,135.9887316640438,133.12315499117534,133.219970703125,491300.0
2024-02-13,132.32930021222504,132.9488822581375,130.67384635486445,131.59353637695312,275900.0
2024-02-14,131.9130184285909,133.07474776047272,130.8577952317336,132.7939910888672,335000.0
2024-02-15,132.7939868427026,133.41356890629376,130.27694117211416,130.73193359375,471400.0
2024-02-16,131.05141105332157,133.59751331676136,130.73193696622823,133.11346435546875,453900.0
2024-02-20,132.76492924425213,135.66922259050702,132.580988302136,135.23358154296875,373000.0
2024-02-21,134.64307352382625,135.64021329621986,134.5559482478703,135.53372192382812,276300.0
2024-02-22,135.9887045298492,137.87649236016304,135.60147130332354,136.95680236816406,295700.0
2024-02-23,137.44086687732337,137.5183164858138,136.1145774154304,136.85032653808594,190300.0
2024-02-26,136.9858566979064,137.52798917361454,136.30819110327124,137.3924560546875,199200.0
2024-02-27,137.39243933350093,137.64413944601768,135.3400767046714,135.83380126953125,244600.0
2024-02-28,135.19485448974754,136.73414124839545,134.88507086916457,135.9306182861328,189600.0
2024-02-29,136.14360929042408,137.1117071682836,135.36912803373622,135.97903442382812,250600.0
2024-03-01,135.41754419742617,136.29850209365307,135.1077457669271,135.814453125,151400.0
2024-03-04,136.20166416122555,137.58603674491985,136.07580673652672,137.43115234375,260300.0
2024-03-05,137.73130314278708,138.64131760349056,137.2182123974122,137.97332763671875,190200.0
2024-03-06,138.37021994084103,139.05757592063267,137.93457885855102,138.50576782226562,184000.0
2024-03-07,139.89013059583016,140.5097125902881,139.25118250942043,140.03533935546875,250100.0
2024-03-08,140.09344450787563,140.44196032011527,138.40894895338388,138.52511596679688,185200.0
2024-03-11,138.23470289544156,138.80589192553307,137.4505459017938,138.18630981445312,226700.0
2024-03-12,138.24439416826982,138.2928020215548,136.9664977471601,137.86683654785156,242200.0
2024-03-13,138.43800441506068,138.43800441506068,136.43403460324666,136.65670776367188,336800.0
2024-03-14,136.85031074719467,137.10201086674357,135.88221291077477,136.43402099609375,235200.0
2024-03-15,135.57240492142637,137.86680667638342,135.28198740864667,136.5017852783203,599500.0
2024-03-18,136.4340127765464,136.79221899940188,134.49781722035388,134.81729125976562,299700.0
2024-03-19,134.4494497592499,135.84351318877248,134.4494497592499,135.05934143066406,253000.0
2024-03-20,135.17551943672254,135.6014848917867,134.70114613049162,135.50466918945312,220000.0
2024-03-21,135.83380611845956,137.08266060945118,134.85603261400937,136.6373291015625,255800.0
2024-03-22,137.4795668432542,137.90553224987627,136.5502012033519,137.07296752929688,276000.0
2024-03-25,136.69541504364804,139.4544998568,136.66637328957285,138.39927673339844,316300.0
2024-03-26,138.27343080301986,139.7062116207552,138.07012373555634,138.63162231445312,314200.0
2024-03-27,139.08660656444317,140.5193871456138,139.08660656444317,140.04502868652344,218200.0
2024-03-28,140.1999296948087,140.71302034415112,139.06724227584522,139.29959106445312,247800.0
2024-04-01,139.2028031090346,139.2028031090346,137.5860812427115,137.7506561279297,204400.0
2024-04-02,137.31500593788894,137.31500593788894,135.91126690307195,136.14361572265625,202600.0
2024-04-03,136.18234355557956,136.68575865051397,135.40786220306578,136.38565063476562,258700.0
2024-04-04,137.3053243590496,138.1959726377349,136.47275958975655,137.22787475585938,403600.0
2024-04-05,136.86968595043953,138.20565100866335,136.45339617162944,137.20851135253906,288300.0
2024-04-08,137.15041706598697,137.83777302127123,135.91125303201014,136.0274200439453,312500.0
2024-04-09,135.94029261944223,136.59860681125565,134.91411130502746,135.83380126953125,242600.0
2024-04-10,134.5462509693493,135.74669776324401,134.0331602299272,134.95285034179688,200700.0
2024-04-11,134.81727942272173,135.57239444157725,134.03312265483316,134.69143676757812,265300.0
2024-04-12,133.76210007332836,134.51721533826313,131.6226117466809,132.8230438232422,299200.0
2024-04-15,134.18807671589846,135.34979146837313,133.4329613881897,133.79115295410156,319600.0
2024-04-16,133.3942198007507,134.94318254299932,132.97794474232344,134.168701171875,281700.0
2024-04-17,134.44943883100882,135.03028869809586,133.93634813434798,133.9847412109375,565400.0
2024-04-18,133.97508736900187,134.99159326695258,133.81051247459138,134.672119140625,246600.0
2024-04-19,134.62367866886507,135.4562433737092,134.34293680453402,134.89474487304688,276600.0
2024-04-22,135.0980663323081,136.6470141255359,134.80763400482732,135.843505859375,298800.0
2024-04-23,135.31101172472623,136.65666685787943,135.0689873139289,135.6788787841797,417200.0
2024-04-24,135.88283187941434,136.8052204354619,135.58184333310518,135.9410858154297,559200.0
2024-04-25,135.7759941871754,137.14502060339382,134.88273282197122,136.10610961914062,694400.0
2024-04-26,137.87323164710924,144.19403432783037,137.77613189586884,139.16458129882812,489500.0
2024-04-29,140.68894676515575,143.71828418532212,140.17435067690909,142.12594604492188,676700.0
2024-04-30,141.50457416653438,141.85411259899917,139.87338987658373,140.18409729003906,585100.0
2024-05-01,140.77634869572992,142.9318328954004,140.37826043918207,141.15501403808594,359600.0
2024-05-02,141.5239675984383,142.46577897675033,141.06762539181938,141.6793212890625,356500.0
2024-05-03,142.8347262098354,142.85414912308485,140.63069223929037,142.54344177246094,303300.0
2024-05-06,143.46584874866832,144.74749451317692,142.88329461371845,144.70864868164062,260200.0
2024-05-07,144.00957355262796,146.00970404941293,144.00957355262796,145.36888122558594,392900.0
2024-05-08,145.36887962927,146.4854527186998,145.13584910988936,146.40777587890625,223500.0
2024-05-09,146.61171295258077,147.3204939066375,144.31059345708334,144.7475128173828,299100.0
2024-05-10,144.62127547863358,144.66982536296524,143.78626784030067,144.17465209960938,186300.0
2024-05-13,144.21346995257653,145.13585840929454,142.59200470826642,143.57264709472656,167500.0
2024-05-14,143.99014505242278,143.99984910137368,143.18426452924012,143.6017608642578,137600.0
2024-05-15,143.66003210063693,144.02897856662815,142.5046131956969,142.99978637695312,211100.0
2024-05-16,143.08718529410942,143.6017814537863,142.17450084023903,143.2522430419922,235500.0
2024-05-17,143.55324035133813,143.8639329180127,142.85416355714113,143.3784637451172,169500.0
2024-05-20,143.30079134207162,144.09696792166733,142.7667722722628,143.8639373779297,163400.0
2024-05-21,143.64060931065208,144.35909414501361,142.81530585917272,144.27171325683594,280400.0
2024-05-22,143.7668346921676,144.50474243328088,143.18426581237048,144.4658966064453,283300.0
2024-05-23,144.3396862943476,144.62125187296155,143.27164827475897,143.427001953125,171700.0
2024-05-24,144.1649049429506,144.50473925123936,143.07745886097342,143.78623962402344,162300.0
2024-05-28,143.32990795502417,143.48526163962768,141.58223085693479,142.4463653564453,318400.0
2024-05-29,141.41714913451602,142.43663725250155,140.3102801303625,140.6306915283203,229700.0
2024-05-30,140.91228668269574,142.70851373087208,140.78605995699684,141.89292907714844,328100.0
2024-05-31,141.8443808876884,143.5338189608347,141.6793231449918,143.39788818359375,358900.0
2024-06-03,144.18433298516325,144.18433298516325,142.0288488421779,143.85421752929688,266200.0
2024-06-04,143.35906199446953,144.07756180995295,142.4366733928615,143.8833770751953,287900.0
2024-06-05,143.42700061426063,143.89304682966602,142.80560072193944,143.62118530273438,229200.0
2024-06-06,143.70858196047192,143.70858196047192,141.17443223714181,141.71817016601562,197600.0
2024-06-07,141.53366068244839,142.07738368524713,141.2229533577973,141.32005310058594,179100.0
2024-06-10,140.62097903208888,141.5724943045568,139.80539451283065,141.35888671875,125800.0
2024-06-11,140.6986800796317,141.50456068926422,140.15495697321543,141.2715301513672,147700.0
2024-06-12,141.9900224631697,142.05798044025738,139.88308812796836,141.59193420410156,221300.0
2024-06-13,141.6501881317032,142.27158805169188,140.805476550794,141.59193420410156,232400.0
2024-06-14,140.8734351702916,141.15501557544053,139.50440860403918,140.54331970214844,141500.0
2024-06-17,140.65981624752195,142.4172120684738,140.3685466316063,142.077392578125,303800.0
2024-06-18,142.22305259413477,143.39789457614634,142.2133485436648,142.4269561767578,219900.0
2024-06-20,142.39781323867697,143.24252481049206,141.43657899757036,141.572509765625,199900.0
2024-06-21,141.6307756362361,142.8638715174382,141.0870525181657,142.58230590820312,444100.0
2024-06-24,142.94153910100914,143.92218146002028,142.4075200677485,142.45606994628906,182900.0
2024-06-25,142.52403514640127,142.53375401180762,140.30059282386082,140.65013122558594,194500.0
2024-06-26,140.05782362492792,140.58212369028553,138.80531997053257,139.5335235595703,192400.0
2024-06-27,139.68887329101562,139.69859215477817,138.1353810691403,139.68887329101562,377300.0
2024-06-28,139.60150714084187,140.12582211775148,136.01874245488284,136.7178192138672,435100.0
2024-07-01,137.2712390056261,137.3683239304442,134.36812863283706,134.51376342773438,306400.0
2024-07-02,134.4555328904598,136.41683242305885,133.75645612270853,136.31973266601562,259400.0
2024-07-03,136.7858055226286,137.2906828198518,136.48481699130676,137.1159210205078,143300.0
2024-07-05,136.89261727770193,137.3295366167457,135.66922534996536,136.8052215576172,207000.0
2024-07-08,137.53339169445843,138.35869510013967,137.38775688891062,137.3974609375,249300.0
2024-07-09,136.76634544453174,137.16443363310623,135.68860352872045,135.9701690673828,238400.0
2024-07-10,136.65956823532298,137.51399869592782,136.48480644947725,137.18386840820312,142000.0
2024-07-11,137.09648258623827,139.13545890652216,136.65956332198957,137.9606170654297,244500.0
2024-07-12,139.24228498373407,141.26183871311542,139.24228498373407,140.3879852294922,263900.0
2024-07-15,140.55303808812164,141.4560185081972,138.98012261389596,139.26168823242188,319900.0
2024-07-16,139.66948303288666,141.07734063154754,139.66948303288666,140.3588409423828,178800.0
2024-07-17,140.14523913079555,141.5336886876332,140.14523913079555,140.65013122558594,242300.0
2024-07-18,140.4074042597719,142.97068107315562,140.39770020918226,142.02886962890625,434200.0
2024-07-19,142.3298497313873,142.3298497313873,140.45594581987174,141.69874572753906,251200.0
2024-07-22,141.747306657231,143.27167228757753,141.02880688587183,142.9124298095703,235700.0
2024-07-23,143.572641002004,144.19404091845544,141.43657971516106,141.7958221435547,234500.0
2024-07-24,141.8249684790197,142.36869157146538,139.718019272778,139.9510498046875,250600.0
2024-07-25,139.11343221874438,140.30168787194964,137.54532532307127,137.8083038330078,558100.0
2024-07-26,139.40562054037346,147.35327797180082,138.64591810105864,142.84376525878906,562800.0
2024-07-29,142.76586110666832,144.48980830931347,141.39254698148082,143.95411682128906,390900.0
2024-07-30,143.54501837821707,144.05147671755117,141.62627871162664,141.95742797851562,411000.0
2024-07-31,142.68793548619507,144.97679227316166,141.62630185383244,143.1554412841797,280600.0
2024-08-01,143.05804117385702,145.64881403519908,141.64575972559882,143.20413208007812,335300.0
2024-08-02,142.76584278576115,143.17491218000953,140.00948044813856,141.8990020751953,213500.0
2024-08-05,139.69780574748174,139.69780574748174,135.85059153457982,137.0193634033203,448500.0
2024-08-06,137.65245225788104,142.28858689391723,137.4381756914255,141.1587677001953,476000.0
2024-08-07,142.21065060341132,143.4281242007132,139.73675079285874,139.86337280273438,353600.0
2024-08-08,140.70101663202263,142.356778003838,140.70101663202263,141.7723846435547,268600.0
2024-08-09,141.6263160680969,141.6263160680969,139.7367940818522,140.2042999267578,263200.0
2024-08-12,140.22376060481798,140.42828787630694,139.05498875394557,139.5614471435547,221100.0
2024-08-13,139.77571975776996,141.5191504756012,139.37639966606926,140.61334228515625,212000.0
2024-08-14,140.37960449405662,141.04190311093822,139.75625849980418,140.15557861328125,115700.0
2024-08-15,141.22695417806543,143.5060614579835,141.22695417806543,143.1846466064453,277500.0
2024-08-16,142.30806341467064,143.01906387906809,141.8210739450238,142.90219116210938,250600.0
2024-08-19,142.51264091252753,143.8859402629572,142.12304032304087,143.14572143554688,191200.0
2024-08-20,143.1554262192904,144.45082004519588,143.1554262192904,144.2560272216797,387200.0
2024-08-21,144.3144557805946,145.67803519496948,143.62293906523604,145.44427490234375,267300.0
2024-08-22,145.67802291658182,146.48641227924912,144.80143303942248,145.1131134033203,200400.0
2024-08-23,145.7657034384913,146.6130604286141,145.5514268655365,146.52540588378906,221400.0
2024-08-26,146.75917453354265,148.69739843644913,146.23323231972114,146.25271606445312,235500.0
2024-08-27,146.10658758715397,147.59677430031587,145.94101293699603,147.265625,208300.0
2024-08-28,147.00264345528416,148.01558993867803,147.00264345528416,147.59677124023438,249000.0
2024-08-29,148.58049863148904,148.9311316640923,147.27537034525355,148.31752014160156,187100.0
2024-08-30,148.2395824635224,149.4473216241324,147.69415666896893,149.20382690429688,178500.0
2024-09-03,148.15194689459446,148.41492538696468,145.83387210929124,146.13580322265625,362400.0
2024-09-04,145.70725993860023,146.97342071092024,145.70725993860023,146.80784606933594,175800.0
2024-09-05,147.14874398418533,147.8110425475091,146.0481429967178,146.79811096191406,200600.0
2024-09-06,146.4669590943475,149.13565190287514,146.4669590943475,148.4149169921875,319100.0
2024-09-09,148.5999677014531,149.07720785028144,147.4993667902164,147.95713806152344,241500.0
2024-09-10,147.91816839318517,148.8142271832738,147.49936460659802,147.56753540039062,158100.0
2024-09-11,146.86629136229539,146.95396076989897,144.76250795288001,146.9149932861328,178000.0
2024-09-12,146.96369468322857,148.05454643692235,146.06763576244578,148.005859375,200400.0
2024-09-13,148.22986559888577,149.02852064652984,147.9474033678148,148.31752014160156,138600.0
2024-09-16,149.05773552118288,149.18435754345714,148.11298958996787,149.00904846191406,182900.0
2024-09-17,149.99274960728783,151.5219036038018,147.9181698082619,149.04798889160156,259900.0
2024-09-18,149.75900813476628,151.4440025327287,148.73634205746214,149.08697509765625,214200.0
2024-09-19,150.98625109226774,154.67762550954814,150.98625109226774,152.81732177734375,412400.0
2024-09-20,152.24264348688334,152.24264348688334,150.4602602695772,151.85305786132812,663300.0
2024-09-23,152.1063217320608,152.82707165167685,150.7135386843107,151.90179443359375,315800.0
2024-09-24,152.1160493204721,152.99263943106746,151.96995839957702,152.55435180664062,246200.0
2024-09-25,153.2069113857245,153.76207173006424,151.81411358113382,153.0510711669922,284100.0
2024-09-26,153.83025116800434,154.92110293146314,153.59649084937433,154.25880432128906,371600.0
2024-09-27,154.55097113044005,157.3463007953961,154.14190175887705,155.7294921875,354300.0
2024-09-30,155.14512315625234,156.2457242868971,154.7944900883672,156.02171325683594,289800.0
2024-10-01,156.36259442762125,156.36259442762125,154.9113751149142,155.80743408203125,192200.0
2024-10-02,155.70028846125726,155.94378321896212,153.84973424739667,154.61917114257812,186900.0
2024-10-03,153.87893746061624,156.28466662165906,152.56405995222016,154.80421447753906,367000.0
2024-10-04,155.7782195226645,157.2684063556804,155.18409167761138,156.4015655517578,350500.0
2024-10-07,155.24251230852914,155.486007058675,153.89841653196711,154.56072998046875,223300.0
2024-10-08,154.16140851662,154.88215839036292,153.0121203289736,154.541259765625,205900.0
2024-10-09,154.22958607287964,155.8853474593437,154.00556019446944,155.54444885253906,152600.0
2024-10-10,153.93739633476548,155.23279029262568,153.93739633476548,155.0769500732422,168500.0
2024-10-11,156.75220088173344,157.70669625153667,156.1775567716702,157.34632873535156,194400.0
2024-10-14,160.69678791517742,163.39469883242896,159.2066013513777,162.83953857421875,469700.0
2024-10-15,162.96615916864047,165.2452662626044,162.1577548858949,164.29075622558594,397300.0
2024-10-16,164.3102858850682,164.79727547859937,161.60262493397434,161.71949768066406,330000.0
2024-10-17,162.63502251682706,163.94016577814568,162.18700046287847,163.52134704589844,238200.0
2024-10-18,164.69986730082573,164.69986730082573,163.414207789957,164.24209594726562,171500.0
2024-10-21,164.0862524476999,164.1057361900711,161.97271968352462,162.00193786621094,217900.0
2024-10-22,161.40779833915946,162.04087873375656,160.52147389733162,161.49545288085938,228500.0
2024-10-23,162.17724687078498,163.6089972685699,161.83636311905678,163.28758239746094,318100.0
2024-10-24,164.38138841449273,164.3911490539813,162.26215240803288,162.65280151367188,547300.0
2024-10-25,164.96734120598276,165.87558734575057,160.75819577884172,164.95758056640625,518900.0
2024-10-28,165.92438047989975,167.39905642975634,164.81105676436079,165.1431121826172,350000.0
2024-10-29,165.07475181943673,165.52399452591067,163.7172779631245,164.75247192382812,338100.0
2024-10-30,164.41068693257148,166.2173887714383,164.18605810635694,165.07476806640625,290300.0
2024-10-31,165.13333821190827,166.29549493250488,163.93212403677143,163.98095703125,329900.0
2024-11-01,164.16654807832185,166.98892289403057,163.69776911458624,165.44589233398438,316300.0
2024-11-04,165.66072177477935,166.5787284860389,164.24463934900223,164.32276916503906,191800.0
2024-11-05,163.8149435034101,166.37363158046975,163.8149435034101,166.32479858398438,206200.0
2024-11-06,171.05154898002016,171.05154898002016,168.1119872286225,169.10812377929688,264100.0
2024-11-07,170.12378096512896,171.35430696476374,169.47922114643825,170.62185668945312,412300.0
2024-11-08,170.61208381104976,173.67860841546667,170.4070060757364,171.64727783203125,309200.0
2024-11-11,172.19418764538844,173.86416596467407,171.78400236870633,172.0281524658203,189100.0
2024-11-12,172.51646680557812,173.09267240733516,170.85624898942092,171.5886993408203,179800.0
2024-11-13,171.39337158203125,172.26254534897026,170.95390437883552,171.39337158203125,168400.0
2024-11-14,171.05157217139998,171.67659589736598,169.84059708457022,170.02615356445312,198200.0
2024-11-15,168.92257425336157,169.69408202115162,162.28168847937133,162.59420776367188,620500.0
2024-11-18,162.49655239968402,163.8930988274997,160.4847578059515,162.78953552246094,384400.0
2024-11-19,162.5258191611862,163.7465695288508,162.31096590433822,162.9945831298828,287600.0
2024-11-20,163.09229971471046,164.98690725735176,161.77388294793647,164.7818145751953,221800.0
2024-11-21,164.74271987680694,166.24667789967594,163.81495249958823,165.90487670898438,205100.0
2024-11-22,166.1978542572136,168.04364337816776,166.1978542572136,167.49673461914062,241600.0
2024-11-25,168.02409483029683,169.94799873062775,167.7213511031337,168.46356201171875,270100.0
2024-11-26,168.81514749207574,168.81514749207574,167.1549297751935,168.0143280029297,140300.0
2024-11-27,168.62958510670097,169.81127811822287,167.50650063518984,167.71157836914062,167200.0
2024-11-29,168.5514742252474,169.43042360328997,168.06317398247072,168.91282653808594,117300.0
2024-12-02,168.9323215272417,169.0592843391612,166.8423974094864,168.71746826171875,170900.0
2024-12-03,169.39132382716835,169.39132382716835,167.0865464581629,168.3658905029297,160100.0
2024-12-04,167.86786575854285,168.8444662958319,167.02798870040462,168.55148315429688,173400.0
2024-12-05,167.98502374389864,168.40496965056505,166.5396593733903,167.09632873535156,245000.0
2024-12-06,167.58463897320985,168.61005749857284,166.85218865409922,167.14515686035156,209200.0
2024-12-09,167.54556559711838,169.4108759749143,166.24668525088177,166.7935791015625,301700.0
2024-12-10,166.72521015388972,167.3599944100707,164.25441250187913,166.9107666015625,287000.0
2024-12-11,167.85808411107303,170.02613822467129,167.73112128855698,168.27801513671875,418600.0
2024-12-12,167.6529998247031,168.5612460049008,166.7838260080303,167.6237030029297,178300.0
2024-12-13,166.9107848371899,166.99867530040407,165.8462939336225,166.21739196777344,153200.0
2024-12-16,166.158796503823,166.9303042864774,163.66846242787886,163.70753479003906,236100.0
2024-12-17,162.99458751218418,163.00436305250057,159.02959259568405,159.27374267578125,511900.0
2024-12-18,159.85973142770067,160.5726455898807,154.214981970008,154.50796508789062,468600.0
2024-12-19,154.80091960788565,157.78932926379758,154.52747269585277,155.15249633789062,404700.0
2024-12-20,155.00602554523715,156.04121964416362,153.78527497542004,154.47865295410156,730200.0
2024-12-23,153.49229809203675,155.1818127767919,153.28722033295332,154.8107147216797,194900.0
2024-12-24,155.06463789322575,155.68966166429698,154.22476080381048,155.62130737304688,100500.0
2024-12-26,154.71303442348506,155.89472747069453,154.71303442348506,155.1329803466797,164500.0
2024-12-27,154.1270910423129,155.84590247939389,153.92199838988887,154.44935607910156,145000.0
2024-12-30,153.32626257404377,153.80480213396478,151.3730617769222,153.0625762939453,221700.0
2024-12-31,153.59970058644706,154.54700411025723,152.52543424962974,153.42391967773438,317100.0
2025-01-02,153.96102932277924,154.41027201167452,149.85931109671645,150.55270385742188,239400.0
2025-01-03,150.43551553521377,152.07621191768425,149.29289488218893,151.86135864257812,250700.0
2025-01-06,150.39648145810642,151.02150520056398,147.89638648827628,149.3417510986328,369000.0
2025-01-07,152.27153842764793,152.40826189282907,149.0292327240345,149.8397979736328,361200.0
2025-01-08,149.31242715408106,150.65036486716312,148.53114389248458,150.54293823242188,228600.0
2025-01-10,149.1463999140004,150.68943018558076,149.0096764672395,149.85931396484375,350800.0
2025-01-13,149.351489060231,151.08007590647148,149.351489060231,150.28903198242188,349300.0
2025-01-14,151.18750459843608,151.81252825447513,149.8886242863141,150.9921875,196900.0
2025-01-15,152.4668462198905,153.24812950251066,150.5624784634495,151.91995239257812,206100.0
2025-01-16,152.24222469159,153.4922719205697,151.67579471256195,152.75006103515625,346300.0
2025-01-17,153.29697420180517,154.25403847264764,152.03715127326387,152.43756103515625,231900.0
2025-01-21,153.05282926731795,156.5099884289423,153.05282926731795,156.09005737304688,270900.0
2025-01-22,155.61149546068765,156.98850552412839,154.63489511528093,155.3478240966797,280000.0
2025-01-23,154.7521187567618,156.07052046490324,154.0391896764672,155.8849639892578,149800.0
2025-01-24,155.91424200320077,156.71506145375167,153.54111027377883,154.59584045410156,329600.0
2025-01-27,154.54701307242723,155.201333551255,152.98444647403235,154.75210571289062,317000.0
2025-01-28,153.88294176224863,156.59788985115384,153.88294176224863,154.71304321289062,204300.0
2025-01-29,155.0646061385479,155.10367849846844,152.95514575501196,153.43368530273438,265800.0
2025-01-30,154.1270963205914,154.96695843542625,152.9161063496536,154.42984008789062,274200.0
2025-01-31,154.2052134386578,155.66035355252484,153.09188946148322,153.47276306152344,834100.0
2025-02-03,150.96288932286944,153.0821103704106,150.53318276913035,152.3301239013672,364600.0
2025-02-04,152.43756037769683,154.75211357303183,152.43756037769683,154.0098876953125,302400.0
2025-02-05,155.01866189479728,156.3702319730873,154.52896432375118,155.05784606933594,262600.0
2025-02-06,156.54649741836073,156.54649741836073,152.16860045521503,153.22634887695312,446600.0
2025-02-07,154.37224962460155,154.64647905482116,139.11327229734582,140.2297821044922,1221500.0
2025-02-10,141.2875312819042,141.62053697254157,137.99676315893876,140.32772827148438,621900.0
2025-02-11,139.33854663703144,140.1220657147679,137.3699528993658,139.35812377929688,377300.0
2025-02-12,138.06531924654766,140.53339891858562,137.0467400415367,138.7802734375,423500.0
2025-02-13,139.80863972660936,140.81741540614397,138.54522672072014,139.82823181152344,665900.0
2025-02-14,140.72929960574803,142.31591505799216,139.7792850599418,141.80662536621094,512800.0
2025-02-18,141.80659906879063,144.25508663085154,140.93493809447224,143.8731231689453,489600.0
2025-02-19,143.12881942892955,144.45100897747918,142.60974114853846,144.01026916503906,331000.0
2025-02-20,143.94171731007287,144.38244217212826,142.91334933568692,143.65768432617188,283100.0
2025-02-21,144.00046152927248,144.35304436591701,142.20816668836144,143.32467651367188,451900.0
2025-02-24,143.1679734070286,144.25510260272546,141.38548203557013,142.60972595214844,353300.0
2025-02-25,142.8741783567833,145.27369363811277,142.71747153615823,144.66647338867188,336700.0
2025-02-26,143.62828832707837,146.10615678438293,143.59890766903789,143.61849975585938,735600.0
2025-02-27,143.21693102979327,144.14735331926948,142.3648621360305,142.62930297851562,262800.0
2025-02-28,143.14838730085012,143.9221028321513,141.64991403633834,143.72622680664062,348700.0
2025-03-03,143.9417092483485,145.7731734330009,142.6880846270143,143.5695343017578,394100.0
2025-03-04,142.54115535917794,144.90150112160728,142.14940329945776,142.93292236328125,490100.0
2025-03-05,143.0406700510276,145.78297956351986,143.0406700510276,145.3814239501953,445100.0
2025-03-06,144.51955819613613,148.3783778054115,144.0298605796166,148.03558349609375,471700.0
2025-03-07,147.40875736971992,150.20003950079644,146.10616003817648,149.63198852539062,480200.0
2025-03-10,148.93662196596816,150.82684736023063,147.14432711634848,147.467529296875,391100.0
2025-03-11,147.24225796213827,147.45772608292995,144.23552273099082,144.84274291992188,304000.0
2025-03-12,145.18554224213253,145.18554224213253,142.56075547219578,143.0210723876953,299700.0
2025-03-13,143.39324790721705,144.16696350239528,140.79784178568258,141.77723693847656,238400.0
2025-03-14,142.23754924682325,143.86334873443155,141.5617642221919,143.63809204101562,223600.0
2025-03-17,143.49116498279625,144.9504690034165,142.85456417100727,144.79376220703125,225200.0
2025-03-18,144.35304428256728,144.49015899982857,142.7762175618708,143.28550720214844,219900.0
2025-03-19,143.32468002289772,144.42161273286254,142.4726110403041,143.9514923095703,279600.0
2025-03-20,143.1190055816075,144.38241863949617,140.76844845978337,142.20816040039062,332800.0
2025-03-21,141.03288741960213,142.46281077035695,139.4266801328764,141.83599853515625,601900.0
2025-03-24,142.74682361184875,145.12674632792306,141.9241353848884,144.940673828125,463800.0
2025-03-25,145.43038233248038,146.15512513486658,142.9231183481365,144.1767578125,325200.0
2025-03-26,144.02003557814166,145.63603132614415,143.28548933916207,145.49891662597656,630400.0
2025-03-27,145.22472970521724,146.80155669057183,144.0004856154819,146.27268981933594,312700.0
2025-03-28,146.21390008176047,146.90927723620769,142.75663628635246,143.90252685546875,239800.0
2025-03-31,143.55973295769965,146.01800923430915,143.08962750262015,145.32264709472656,372500.0
2025-04-01,145.8123638891414,146.93866240475776,144.3432710717018,146.02783203125,240000.0
2025-04-02,144.95049129591143,148.01600308998087,144.95049129591143,147.42835998535156,247600.0
2025-04-03,143.73602588355362,146.9582442746014,143.44221929600363,145.60667419433594,352900.0
2025-04-04,142.22775504246812,144.91130294785953,137.1544807452422,137.29159545898438,531600.0
2025-04-07,133.5307294902565,139.19163219073434,128.15385974857273,131.87554931640625,629900.0
2025-04-08,134.5493112573588,136.43953673434598,128.57499483049722,130.9059600830078,473800.0
2025-04-09,130.43582718258966,141.44423305934052,128.6141667138947,140.7880401611328,491800.0
2025-04-10,137.11531475806592,140.41587148111097,134.73539182521205,137.85964965820312,309000.0
2025-04-11,137.96737957378522,141.7282680233526,136.86067330008663,141.140625,203000.0
2025-04-14,142.79581425798335,143.38344237476502,140.82722046414764,142.7860107421875,249300.0
2025-04-15,143.08963340422312,143.5205547049289,140.80764097500608,140.97413635253906,250700.0
2025-04-16,141.0916344202541,142.81537910049846,139.63234550590659,142.01226806640625,307700.0
2025-04-17,142.40405194984112,142.75663480933545,137.8107011490633,140.8664093017578,390600.0
2025-04-21,140.347331860725,141.08187824351555,138.19266546008294,139.6421661376953,291600.0
2025-04-22,141.52259151328374,143.79479531157602,140.631338388382,143.0112762451172,217800.0
2025-04-23,144.823151790697,146.24328667195422,144.1865509396658,144.99945068359375,537000.0
2025-04-24,144.88190918887037,148.86805439769142,142.4628170537404,148.3391876220703,424500.0
2025-04-25,147.74175781185858,149.84745131334506,144.52934305768525,145.98863220214844,220500.0
2025-04-28,146.71337821983508,147.91802992014826,145.2246935924771,146.6154327392578,235200.0
2025-04-29,146.67419752698908,148.84845573678555,145.93965123839249,147.2030792236328,359900.0
2025-04-30,145.9984330116698,146.89947469973708,144.17675754933848,146.86029052734375,556200.0
2025-05-01,145.82883124627438,147.8721067076984,144.36514960993844,145.66183471679688,445300.0
2025-05-02,150.28867188742916,150.29848992197137,145.18047592473235,149.31614685058594,431600.0
2025-05-05,148.7562082163406,150.51461075676426,148.21593150363898,148.80532836914062,267600.0
2025-05-06,147.59705042912566,149.355437978684,146.78170385931236,148.25521850585938,312000.0
2025-05-07,149.19827245283236,150.44583737765655,147.9605105733144,148.7169189453125,318400.0
2025-05-08,149.10985945249004,151.84078718705774,148.5695827139862,150.6521453857422,302500.0
2025-05-09,151.19241752840685,151.57553070592974,150.23954360160494,150.6128387451172,231600.0
2025-05-12,153.0392239180569,153.82510139061208,150.98613045039815,152.7740020751953,352500.0
2025-05-13,153.55005471787953,153.55005471787953,150.49496693494288,150.9272003173828,339400.0
2025-05-14,150.90752912864178,150.90752912864178,148.30432613531156,149.78765869140625,350100.0
2025-05-15,149.65998239804614,152.7347062134107,149.65998239804614,152.2140655517578,278100.0
2025-05-16,152.4399964689241,154.3752135929202,151.86041763202704,154.23768615722656,278600.0
2025-05-19,153.59918681809296,155.54422220096674,153.55006665911085,155.288818359375,185400.0
2025-05-20,157.43029958325823,157.43029958325823,155.12180229520027,155.73085021972656,388100.0
2025-05-21,154.09032526701444,154.86636965019244,153.07851316508325,153.68756103515625,319800.0
2025-05-22,153.5991755437167,154.4832783830283,152.81329802579143,153.88404846191406,278900.0
2025-05-23,152.3810559407016,153.4223372220158,151.53624028030902,153.18658447265625,260500.0
2025-05-27,154.25734853178614,155.64245601461047,153.92335544765425,155.36740112304688,352800.0
2025-05-28,155.36739421063615,156.03538034918074,154.4832763933447,154.6208038330078,364400.0
2025-05-29,155.04320652313712,155.8683710937722,154.05104543149486,155.5343780517578,232100.0
2025-05-30,155.44598590152702,155.97644460873903,153.77599055020596,155.6031494140625,335100.0
2025-06-02,154.75831599595244,156.26131463804512,152.51857506289332,154.1394500732422,349600.0
2025-06-03,153.42235678865717,154.66011883811643,153.2455422040875,153.50094604492188,397800.0
2025-06-04,153.72687442684654,153.7563435201819,147.63633532186296,147.7542266845703,831900.0
2025-06-05,148.90356481639972,150.6324832288513,146.41823804065308,149.79750061035156,482400.0
2025-06-06,151.6443086942385,151.75236704132885,149.52245886221365,150.60302734375,264700.0
2025-06-09,150.0136191980335,150.4753066580511,148.6874500367206,148.9232177734375,388400.0
2025-06-10,149.47334506320036,150.2985097546009,148.1962959040132,149.83680725097656,323500.0
2025-06-11,150.29851181607012,150.87809071516745,148.9232373115395,149.23757934570312,380800.0
2025-06-12,148.7365731786107,151.88988615274167,148.7365731786107,151.62466430664062,337200.0
2025-06-13,150.29848970697998,151.00577791651503,148.0685667411024,148.49098205566406,361200.0
2025-06-16,148.5695758002576,150.20025395390124,148.4516844355203,149.01162719726562,346200.0
2025-06-17,147.9998296074305,148.58922653181065,146.49684571567806,146.81118774414062,379700.0
2025-06-18,146.4869866848808,148.0685595503163,146.4869866848808,147.05674743652344,383200.0
2025-06-20,147.6363309167007,148.10786637472864,146.35929693863002,147.6461639404297,570500.0
2025-06-23,146.85047583401547,151.2218996436103,146.85047583401547,151.0745391845703,356500.0
2025-06-24,151.84077408220156,151.84077408220156,150.47530283808342,151.1531219482422,246600.0
2025-06-25,151.14331042765082,151.80147850793904,150.0725600428252,151.21206665039062,264700.0
2025-06-26,151.80148526751537,152.83294856947208,150.4163778331554,151.7523651123047,658200.0
2025-06-27,151.92918872409527,153.3535832332286,151.50677339306424,153.06871032714844,643100.0
2025-06-30,153.27499173184543,153.73669418509692,151.8800663373244,153.6679229736328,315500.0
2025-07-01,153.66791520781175,156.97842145950187,153.20622776725833,156.20236206054688,338300.0
2025-07-02,156.21222388055548,157.6955567545511,155.84874669443275,157.48927307128906,293500.0
2025-07-03,157.76431481113727,158.51089020387988,156.99808835850575,158.196533203125,235100.0
2025-07-07,158.10811741535406,159.5030428051159,157.7151861749073,158.11795043945312,313900.0
2025-07-08,158.05899691367227,159.70934109650693,157.02754866243734,157.22401428222656,342700.0
2025-07-09,157.10613360189868,157.18472285303153,155.30845881868973,156.90966796875,252800.0
2025-07-10,156.37919368056006,157.52853325880866,155.5343780517578,155.5343780517578,361600.0
2025-07-11,155.7603190354981,155.7603190354981,153.86440405350666,155.11196899414062,292000.0
2025-07-14,154.36538707594116,156.13360757296107,153.92333569902758,154.77796936035156,276600.0
2025-07-15,154.95479334988428,155.21019713887813,151.34959626569866,151.43800354003906,254200.0
2025-07-16,151.2022489800424,152.8624112264187,150.83878682765217,152.2435302734375,261900.0
2025-07-17,152.00777788286257,153.6482890740105,151.78182817574609,153.27499389648438,397700.0
2025-07-18,154.08053795548372,154.43418210944483,152.18460777221878,153.61883544921875,243100.0
2025-07-21,153.6580893576471,153.90367510620285,152.49893181935886,152.70521545410156,205900.0
2025-07-22,153.35357548550758,156.54619042612177,152.48910879729814,156.3595428466797,449900.0
2025-07-23,157.24368095923748,158.99225063096037,156.33009400189493,158.80560302734375,450500.0
2025-07-24,158.55930509041656,161.82977982229215,157.4067422902807,159.40647888183594,431900.0
2025-07-25,159.63305506440543,160.65753702914088,158.3819926877325,158.5888671875,296300.0
2025-07-28,158.79572064833397,159.5640858506177,155.80106845369062,156.3330078125,308500.0
2025-07-29,156.67779828906407,157.21959813532774,154.8750906357904,156.45123291015625,388200.0
2025-07-30,156.4315385130725,156.55958937255576,152.60940298667225,154.45150756835938,580700.0
2025-07-31,153.456563501654,155.0031544025075,152.86550639902828,154.79627990722656,679700.0
2025-08-01,154.62883281758354,155.7616748420332,138.98567424542853,139.24180603027344,1012300.0
2025-08-04,140.98538123418317,140.98538123418317,135.03547356824112,137.05490112304688,839000.0
2025-08-05,137.26176707147744,138.9659752764255,135.63638251685612,138.12864685058594,540800.0
2025-08-06,138.21729882019278,138.6605841437307,135.49846914211423,136.47369384765625,515300.0
2025-08-07,137.71491162131494,139.37970798596095,136.83818640949156,138.39462280273438,564000.0
2025-08-08,138.59163887027924,139.93135534040795,138.48327889728324,138.65074157714844,428700.0
2025-08-11,139.222090228796,139.5077583171329,137.12385398637957,137.7838592529297,349500.0
2025-08-12,138.12862654943748,138.98564573069308,137.15338694127408,137.399658203125,286100.0
2025-08-13,137.60654859738395,139.33044762978915,137.17310872138614,139.32058715820312,729900.0
2025-08-14,138.09908585404855,138.09908585404855,134.405016641309,136.27667236328125,875800.0
2025-08-15,136.29640019144338,136.87759690021682,135.8137029921251,136.65103149414062,770500.0
2025-08-18,136.81847442171076,137.4883401327873,135.3014499206359,135.83338928222656,529500.0
2025-08-19,136.20773671589527,138.4241784468644,136.20773671589527,137.50804138183594,333100.0
2025-08-20,137.8232781418471,139.14328874260568,137.18296372359896,139.07432556152344,519200.0
2025-08-21,138.53252821704885,139.78357552390523,138.1483456132288,138.54237365722656,270400.0
2025-08-22,139.15312448451428,141.19225798353852,139.08417633944555,139.32058715820312,356500.0
2025-08-25,138.8674588166062,139.4979127296023,136.88744301904194,137.47848510742188,245800.0
2025-08-26,136.9957973337368,138.06953652648775,135.95159446141804,137.62625122070312,442900.0
2025-08-27,137.01548945470773,138.47342629437426,136.95638675089546,137.3602752685547,729100.0
2025-08-28,138.07938928608468,138.07938928608468,135.35069910089788,136.8184814453125,320800.0
2025-08-29,137.09431078109077,137.78386744151146,136.28654870208595,137.1928253173828,370700.0
2025-09-02,135.37040364310914,136.46384879424832,134.13904716800675,134.37547302246094,310600.0
2025-09-03,134.0504057475134,134.1489052560839,132.4348665011149,133.20323181152344,382300.0
2025-09-04,134.3163671782823,136.41458834161003,133.0258929963137,136.3948974609375,401800.0
2025-09-05,136.94654859153968,138.7197049562119,135.5772807659998,136.55250549316406,440800.0
2025-09-08,136.52295752982062,137.91193130257207,135.62652636886406,136.23728942871094,616100.0
2025-09-09,136.1978803964661,137.39968559639797,133.08502244977814,135.0059356689453,637100.0
2025-09-10,134.09965957050477,135.40982475360394,132.83875165602893,134.21786499023438,685100.0
2025-09-11,134.71040519706986,136.2175843964125,133.84352538471833,135.05519104003906,477500.0
2025-09-12,134.58232620679007,135.00592063066784,133.20321303157323,133.2130584716797,261300.0
2025-09-15,133.9420357302436,134.13904976383114,132.62202517087903,132.8387451171875,298000.0
2025-09-16,132.77962562814162,133.40023410540573,132.0999294759084,133.19337463378906,474800.0
2025-09-17,133.4002281421939,135.02562764541634,132.18857762612365,132.64170837402344,377400.0
2025-09-18,132.88798558145595,133.48888814617573,132.07037810452255,132.49395751953125,254800.0
2025-09-19,132.65156489801703,133.08500475264486,131.35124533413355,132.43484497070312,877200.0
2025-09-22,132.11962230163485,132.92739938115005,130.691251766929,130.74050903320312,402100.0
2025-09-23,131.0261738005905,131.95215627068484,130.00169183165633,130.0509490966797,319700.0
2025-09-24,130.0312388605038,131.32169799268698,129.38107905871175,129.5386962890625,353300.0
2025-09-25,129.53870141670419,130.54349251095573,128.32705085173455,128.8688507080078,388700.0
2025-09-26,129.37123644965243,130.4548211118124,129.00675974879576,130.31690979003906,274400.0
2025-09-29,130.4252615354418,130.70108416159653,129.40077964275358,130.29721069335938,540600.0
2025-09-30,129.74557555443596,131.76498814664785,129.74557555443596,131.66648864746094,310400.0
2025-10-01,131.3413962300209,132.3560326654084,130.33660523425266,132.13931274414062,310100.0
2025-10-02,131.66650104495739,132.38560908468045,130.9769443608936,131.1936492919922,398500.0
2025-10-03,130.49423360821496,131.58767874762543,130.45482178395852,131.23304748535156,402000.0
2025-10-06,130.90797079558112,131.21334480064905,129.45004891757588,129.9130401611328,447100.0
2025-10-07,130.13960666531722,130.5336347337186,127.8739076939909,128.64227294921875,438800.0
2025-10-08,129.2234697553329,130.04109227782575,128.31719317203184,129.64706420898438,361300.0
2025-10-09,129.73571125193516,130.8587077217144,128.258083526899,128.66197204589844,554200.0
2025-10-10,128.98704858156654,130.04108184834632,127.95270619480443,128.97718811035156,426000.0
2025-10-13,129.03630601031335,130.37602238234368,128.2186835523413,128.2777862548828,311400.0
2025-10-14,128.10046262811323,129.10525366111025,127.11537750629039,127.86405181884766,337400.0
2025-10-15,127.86406447402499,128.44526114593418,125.95299674355027,126.18942260742188,438300.0
2025-10-16,126.5243419047704,127.56852978216413,125.94313774513942,127.23360443115234,352700.0
2025-10-17,127.23361106421747,128.15959357922404,126.92823704995098,127.41091918945312,339700.0
2025-10-20,127.67689829106764,128.14973499654218,126.11061637022783,128.0610809326172,240500.0
2025-10-21,128.66197064438,129.80467301345007,127.19418837559832,128.62257385253906,311600.0
2025-10-22,128.70137488096933,130.13960588126338,128.04136960320932,128.12017822265625,357500.0
2025-10-23,128.27838836608,130.0482160538345,128.19928781482736,129.29678344726562,378600.0
2025-10-24,129.27699821696652,129.41542040316887,127.09188897025071,127.42807006835938,489300.0
2025-10-27,127.68513804202082,128.43657062662018,127.00290900843953,127.32919311523438,521700.0
2025-10-28,127.29953156353623,127.65547648827675,126.03395296154486,126.6568603515625,413500.0
2025-10-29,125.84608767724626,126.06361040803851,122.02957306455488,122.9095458984375,651100.0
2025-10-30,122.6425973459498,124.10591981246533,121.65386309537952,122.95899200439453,702600.0
2025-10-31,113.99116650647636,116.76950718685458,102.0670345015107,114.70305633544922,2758200.0
2025-11-03,114.78215353846566,114.78215353846566,107.07003104374891,111.84561920166016,1661000.0
2025-11-04,113.0716415827989,114.69316503673943,111.26225622049985,112.89366912841797,1029100.0
2025-11-05,113.04198468525121,114.73271928879292,111.49955417930168,114.26801300048828,896900.0
2025-11-06,113.72420198995826,115.64234871180304,112.517952627641,114.84147644042969,880300.0
2025-11-07,114.9205721317626,115.60279355716192,113.39792065465342,114.91068267822266,697200.0
2025-11-10,114.68327245708623,115.45448389057002,112.7156936019875,115.06887817382812,514000.0
2025-11-11,115.64235215314066,118.16362740289492,115.64235215314066,116.93759155273438,484800.0
2025-11-12,117.0067994446968,118.32181771681981,116.58165098825971,116.8288345336914,547500.0
2025-11-13,116.96725913412712,120.50692184487997,116.96725913412712,118.8458480834961,679400.0
2025-11-14,118.4207010320388,119.33034229985671,117.05625044547779,117.27377319335938,521200.0
2025-11-17,117.15511423578639,118.1438484441411,116.24548057452645,117.99553680419922,820200.0
2025-11-18,118.31193671929118,118.75686408712447,116.72995598156568,117.96587371826172,817400.0
2025-11-19,118.16362210922091,118.16362210922091,116.38389759577892,116.6706314086914,598900.0
2025-11-20,116.67063483535937,118.26249749040201,116.04773500908134,117.24410247802734,507400.0
2025-11-21,116.79917713070375,120.86287560236238,116.79917713070375,120.15098571777344,509100.0
2025-11-24,119.48852930748254,121.02107037008182,119.08315219875638,120.10154724121094,740000.0
2025-11-25,121.0309595133857,122.68214385066395,121.0309595133857,122.04935455322266,543600.0
2025-11-26,121.63407548431789,123.11717675407199,121.63407548431789,122.41517639160156,538000.0
2025-11-28,122.23720423365944,124.65960750619288,122.23720423365944,123.34458923339844,315700.0
2025-12-01,123.47312464549341,123.55222519221778,121.64396787729149,121.89115142822266,536800.0
2025-12-02,122.37563109798752,122.46462110038372,119.4390968008952,120.2300796508789,325400.0
2025-12-03,120.08176229804191,122.86011045381893,120.04221956935034,120.68489074707031,543100.0
2025-12-04,120.82332005860296,122.6821452414219,120.55636513524256,120.64534759521484,708000.0
2025-12-05,120.61568357957054,122.11856379579517,119.26112254625717,120.53659057617188,537000.0
2025-12-08,119.55773823925648,120.72444490270962,117.95599365521366,118.71731567382812,496600.0
2025-12-09,118.25260671307173,118.49979025868578,114.06037589162156,114.41632080078125,640300.0
2025-12-10,114.86124902547321,116.47289058274676,113.83296456280685,115.84998321533203,734700.0
2025-12-11,116.6310870053096,117.33308739219939,115.84010415999195,116.68052673339844,389700.0
2025-12-12,117.18477675810965,120.26963024864754,116.32458281214376,120.10154724121094,656400.0
2025-12-15,120.11143594513233,121.08039125301917,119.12270172858626,120.95185852050781,588600.0
2025-12-16,121.28802692871906,122.45473362902362,118.17351257639858,121.44622802734375,644800.0
2025-12-17,120.73434038745187,123.19628656831932,118.72721105831677,122.23721313476562,567300.0
2025-12-18,122.2767604710972,122.72169540087228,120.65523693661119,121.23859405517578,457100.0
2025-12-19,121.95047437935206,122.92932668285609,119.89391294648267,120.02244567871094,1300400.0
2025-12-22,120.02244150583525,122.30641504771651,119.70604686997531,121.35723114013672,527800.0
2025-12-23,121.48577032424926,121.6439638690421,119.95322934159698,120.81343078613281,311700.0
2025-12-24,121.1496037277725,121.7823930301015,120.38828169146663,121.36712646484375,198000.0
2025-12-26,120.99141254975284,122.08890816765887,120.34873378036154,121.86149597167969,306000.0
2025-12-29,121.90103810595791,122.90954365167185,120.9419647432383,121.82193756103516,400200.0
2025-12-30,121.41656032047763,122.89966159046664,121.0408365042768,121.35723114013672,289800.0
2025-12-31,120.15097596397585,121.94058998507745,119.98289296138277,120.58602142333984,314300.0
2026-01-02,120.36850967713042,121.61431698770537,119.41932566926891,121.15950012207031,295100.0
2026-01-05,120.3882753233874,123.17650539661395,120.3882753233874,121.61430358886719,435700.0
2026-01-06,120.84309994356978,121.4659997987374,118.75687009500949,119.20179748535156,777200.0
2026-01-07,119.31054977502313,120.57612829815741,116.28502564669009,119.08314514160156,478500.0
2026-01-08,118.56900865138992,121.98014631699301,118.17351344536358,121.06062316894531,330000.0
2026-01-09,120.70467850674399,123.5621198728979,120.09166055886544,122.4547348022461,429100.0
2026-01-12,122.60303947816963,123.88839694168902,121.59453392415777,123.72030639648438,477300.0
2026-01-13,123.64121411549613,124.02681984811237,121.15948917361368,122.10867309570312,351900.0
2026-01-14,122.71179941985773,125.7274416797615,122.71179941985773,125.42092895507812,611700.0
2026-01-15,125.70766789113175,125.78676843900955,123.11718152395939,123.7005386352539,381000.0
2026-01-16,122.60303809087354,123.78951608727894,121.85159800331378,123.30503845214844,363400.0
2026-01-20,123.49289879622381,124.11579860493296,122.0493478196131,122.42506408691406,275100.0
2026-01-21,122.90955081825824,124.20479780070094,122.50417370291805,123.60166931152344,421000.0
2026-01-22,123.64121667891544,124.98589581561515,122.66236437418617,123.0677490234375,369700.0
2026-01-23,122.93921055756546,124.85735737798285,122.4745118058816,124.58051300048828,429500.0
2026-01-26,124.99577817123766,125.55935637440064,123.69064930373163,124.92656707763672,315400.0
2026-01-27,123.54233481410213,124.87713201390274,122.77112334791536,123.33470153808594,303100.0
2026-01-28,122.80078648003611,123.6609879626866,121.8614919932062,122.3064193725586,347800.0
2026-01-29,122.88978028418853,123.86862507511535,121.20892754069328,122.4547348022461,386000.0
2026-01-30,121.52532437660433,123.60166469190948,121.27814082612888,123.5423355102539,512700.0
2026-02-02,122.80078342815366,124.49152553193812,122.80078342815366,123.42369079589844,489100.0
2026-02-03,122.51405462375108,126.48876266797768,122.29653189940339,123.22593688964844,658700.0
2026-02-04,124.77433039015442,129.44927260782487,123.77184577350829,128.26812744140625,589400.0
2026-02-05,126.71975064755804,128.1192596554473,121.05225107397254,123.05722045898438,2144200.0
2026-02-06,126.58078326238557,134.97782150042084,126.58078326238557,133.31031799316406,1045700.0
2026-02-09,132.5857587104382,138.531180271334,132.2582131007177,137.43936157226562,1043400.0
2026-02-10,136.78427392403074,139.88104683101494,136.78427392403074,139.126708984375,622100.0
2026-02-11,137.99519392074043,139.50388475135443,137.56840169460276,138.9678955078125,584300.0
2026-02-12,139.11678651599092,140.94308767923593,138.3525134196047,139.46417236328125,572700.0
2026-02-13,139.46416820425452,141.86615414747763,139.36492159879577,141.51876831054688,471900.0
2026-02-17,138.2234773285034,142.55102629654255,138.2234773285034,140.59568786621094,614700.0
2026-02-18,140.41703714664675,142.04482998774162,139.791721402891,140.66517639160156,582000.0
2026-02-19,140.5956812663536,142.25326464590432,139.98030082414553,142.09445190429688,525500.0
2026-02-20,142.0547550361601,144.0597244456509,140.94309602664507,143.97039794921875,664500.0
2026-02-23,142.42199361111417,145.15152505885825,142.06467252487357,144.63539123535156,513500.0
2026-02-24,144.98279666295065,145.8165408414096,142.77931908758302,143.06715393066406,429800.0
2026-02-25,141.3500320156877,142.5907281428982,139.3847584456305,141.61801147460938,348900.0
2026-02-26,142.45178416412276,142.8488009040386,139.9505362960431,140.73464965820312,331300.0
2026-02-27,140.47658357934912,142.9381205686862,139.9505296087492,142.64036560058594,344600.0
2026-03-02,141.93563886113196,142.2830398395081,140.56590547180699,141.60809326171875,335000.0
2026-03-03,139.5931967078321,140.26814325067423,135.90088396317486,138.71974182128906,347300.0
2026-03-04,138.302888395737,138.47162126788456,134.9976717766612,136.02000427246094,389000.0
2026-03-05,134.98775502807862,135.32522078079646,133.40959299752922,133.72720336914062,452300.0
2026-03-06,133.0026313554941,133.0026313554941,130.02496050425168,131.096923828125,398500.0
2026-03-09,129.9951790988654,132.98276993154295,126.58078092139597,132.75448608398438,545700.0
2026-03-10,132.3574660154593,133.1316591702968,130.42196798314936,131.14654541015625,503100.0
2026-03-11,130.8190202738326,132.28800044532838,129.0721101988683,131.03738403320312,563800.0
2026-03-12,130.29295237048808,131.8016279987067,127.68252279954663,127.90088653564453,620600.0
2026-03-13,129.1812869710477,129.1812869710477,126.10436937058473,127.69245147705078,660600.0
2026-03-16,128.51628506786432,130.4319280867629,125.06219070801843,128.08949279785156,370700.0
2026-03-17,129.00263581888095,130.04482370856644,127.28551643200822,128.5361328125,276700.0
2026-03-18,123.45423058912087,125.63786042046195,120.51626292882625,123.29542541503906,910500.0
2026-03-19,122.0944332187195,123.8909588849741,120.54603921873606,123.04728698730469,518500.0
2026-03-20,123.33512999241371,123.33512999241371,119.41452545613383,120.15894317626953,1481500.0
2026-03-23,122.59071811756196,125.39964869362488,122.0745842329971,123.21602630615234,455200.0
2026-03-24,122.2433152775169,124.28798013248851,121.95547285876513,123.22594451904297,405000.0
2026-03-25,124.50634549167631,125.62793211237509,122.78921864642815,124.88351440429688,337200.0
2026-03-26,124.28798636131239,126.3922023143744,123.19617519683187,123.76193237304688,442100.0
2026-03-27,123.01751427118627,123.28550132328671,120.85373975633635,121.08202362060547,381400.0
2026-03-30,121.64777727824665,123.01751071469691,120.19864504103799,122.44182586669922,562000.0
2026-03-31,123.46415851677581,126.01502957768723,122.67010992701152,125.08202362060547,557800.0
2026-04-01,126.39219982096562,127.68252689973865,125.38972274230011,125.80659484863281,380200.0
2026-04-02,124.2085781211438,126.14406117582702,123.32520302720033,125.07210540771484,297500.0
2026-04-06,123.66266876079281,125.25076596450165,123.66266876079281,125.07210540771484,461100.0
2026-04-07,124.38723692091199,126.22346576757812,123.8711106378232,124.67507934570312,376900.0
2026-04-08,130.4021481364575,131.68254004802253,127.19617800807119,131.03738403320312,645200.0
2026-04-09,130.24332882387228,131.45424955756675,126.39220287440348,130.42198181152344,424100.0
2026-04-10,131.2656579543429,131.71230555728022,129.87608426848973,130.521240234375,407400.0
2026-04-13,129.82646170678544,131.43439923843442,126.63042687940094,131.126708984375,396300.0
2026-04-14,130.2532453341348,131.73216065356567,129.99518597737963,130.03488159179688,315500.0
2026-04-15,129.83636721114993,130.0547309433663,127.64282491736233,128.68499755859375,407100.0
2026-04-16,125.9554827551545,129.3599535123959,125.9554827551545,127.33512878417969,393800.0
2026-04-17,128.68501330537714,131.31529853067389,128.68501330537714,129.65773010253906,401100.0
2026-04-20,129.59817078840075,131.00759986778516,128.69494031122633,129.945556640625,403600.0
2026-04-21,129.727195499975,131.2656618627598,125.7470474243164,125.7470474243164,310200.0
2026-04-22,126.33264680138942,126.33264680138942,122.04480110008107,123.62297058105469,458900.0
2026-04-23,124.44679072012924,126.49146323670142,123.51379231359721,124.01007080078125,440800.0
2026-04-24,123.48400922187079,123.48400922187079,121.6577005635927,123.15646362304688,440900.0
2026-04-27,123.11676141393268,125.2904634945878,122.6204829533344,123.80162811279297,359700.0
2026-04-28,125.18128618602746,125.70734016180099,122.79914797388655,124.8338851928711,354300.0
2026-04-29,124.20857785922294,124.96292327213307,121.87607050853111,121.9852523803711,448400.0
2026-04-30,122.51130595027864,125.14158341040145,120.97283963229869,122.75944519042969,764800.0
2026-05-01,126.26316859263083,127.5237125861033,117.0224658192811,118.13412475585938,989400.0
2026-05-04,117.79666211505766,120.84381172589876,116.58574139374336,119.7023696899414,739600.0
2026-05-05,120.00014032911528,122.78922301811379,119.92073395333378,121.1217269897461,628600.0
2026-05-06,122.74597925597982,125.94466800462597,121.24129756714204,122.19791412353516,917000.0
2026-05-07,122.5068295340525,126.02439054042098,122.13813047351475,124.66918182373047,749700.0
2026-05-08,124.78875603965518,125.4165335007669,119.9658058031768,120.56369018554688,794900.0
2026-05-11,120.79288554794945,120.79288554794945,119.0191585502766,119.53732299804688,706100.0
2026-05-12,120.02559365453983,120.43415267647454,116.72725880994862,117.6340560913086,696600.0
2026-05-13,117.58423293808002,118.33159035082205,116.01976505817387,117.46465301513672,679500.0
2026-05-14,118.31166263789773,119.73662439056804,116.62761485678391,117.57426452636719,531000.0
2026-05-15,117.49455009110837,117.5045093824967,114.06666843041747,114.26596069335938,447000.0
2026-05-18,115.19268785792543,116.90662874327987,114.76420263658683,115.40194702148438,433100.0
2026-05-19,115.48166685737739,115.63113986049136,112.05378509001822,113.20970153808594,575800.0
2026-05-20,113.66807993613209,115.04321484042606,111.15696237122292,114.85388946533203,562600.0
2026-05-21,116.08951407739181,116.08951407739181,112.37265332877841,115.1030044555664,345600.0
2026-05-22,115.39198749681162,116.38846404651633,114.30582410432685,115.82047271728516,405800.0
2026-05-26,115.79056648170686,116.55785764558959,114.96349676302546,115.96993255615234,344500.0
2026-05-27,116.52796630163347,117.69384200162881,114.32575411191587,114.89374542236328,464000.0
2026-05-28,114.40547144179769,115.93007936247552,112.95061657623215,115.58131408691406,510100.0
2026-05-29,114.65458561775299,116.84683851674723,113.34920381323532,115.44180297851562,559600.0
2026-06-01,114.28589767180515,114.72434218302038,111.63526640610465,111.9840316772461,706800.0
2026-06-02,111.5555436879482,112.65167394505289,110.84804626905223,111.78473663330078,452400.0
2026-06-03,111.29646253608045,113.61824699938008,111.29646253608045,112.13349914550781,372600.0
2026-06-04,114.54497230632394,115.35212345281656,111.14699134502068,112.15343475341797,337600.0
2026-06-05,112.69152600064275,114.18624078068318,111.58544405772433,112.96057891845703,466300.0
2026-06-08,111.86445781905672,112.24311616501637,110.55906839000053,111.54558563232422,422200.0
2026-06-09,112.88085932662787,115.74074968498803,112.27300803930216,115.49163055419922,444400.0
2026-06-10,115.74074928767203,116.13934141606836,112.97054577921195,114.26596069335938,496800.0
2026-06-11,114.70441351982215,116.59772043978674,113.85740999319688,116.16923522949219,395200.0
2026-06-12,117.48458764205596,118.05257897569324,115.96993901734801,117.30522155761719,342600.0
2026-06-15,118.28175862932584,120.31457162088154,117.14577601676713,117.66394805908203,576100.0
2026-06-16,118.08246565966249,120.62348378448296,113.36912845320511,120.22489166259766,474700.0
2026-06-17,121.19147655168894,121.918900150595,119.03908362900873,119.56721496582031,680500.0
2026-06-18,120.03556323646836,122.1182031608104,118.69032142639777,119.89605712890625,750600.0
2026-06-22,119.13873446752551,120.58363003359555,118.46113010611298,119.57718658447266,468400.0
2026-06-23,119.93591657137902,122.14809569936509,118.6604278207416,120.1850357055664,514100.0
2026-06-24,121.55021059109053,124.60939323702425,121.34094382937874,123.84210205078125,404900.0
2026-06-25,125.28699706013307,127.68850153642342,124.45991971828299,125.98452758789062,363500.0
2026-06-26,125.49625757990486,126.67210019838983,124.3204149614199,125.53611755371094,727400.0
2026-06-29,125.16742108368359,125.60587320209562,123.48337326752176,124.84854888916016,446600.0
2026-06-30,124.16097333332938,125.86494727656601,123.5033027809896,124.75885772705078,329300.0
2026-07-01,124.67914609082169,126.39307933521575,123.66273577346423,124.80868530273438,405600.0
2026-07-02,125.82508774888942,127.77818082996899,124.96812492977865,126.5325927734375,468400.0
2026-07-06,125.98452783897301,126.6023460237271,123.74245564919634,125.56600952148438,431400.0
2026-07-07,126.18381913439254,128.26645901687073,125.71548155556971,127.2400894165039,392700.0
2026-07-08,126.00445175211411,126.26353777363065,122.60647080352626,123.77234649658203,537700.0
2026-07-09,124.02146439127118,125.03787467960888,123.34386006655016,124.0114974975586,302100.0
2026-07-10,124.55956853594634,126.53259544666133,123.93179104742975,125.08769989013672,385200.0
2026-07-13,125.64571994715708,126.72191640641843,123.96167980892794,124.449951171875,391600.0
2026-07-14,127.96751666781715,128.95403392567474,127.5091383673285,127.82801055908203,739900.0
2026-07-15,129.25298235497795,130.3092450844948,127.99741214779503,128.65509033203125,466800.0
2026-07-16,129.56187796196684,134.6040465870392,129.56187796196684,134.27520751953125,579300.0
2026-07-17,135.351401437915,136.16850424088722,130.24944675099272,132.1427459716797,530800.0
2026-07-20,131.9135687694055,131.9135687694055,129.2928306127641,129.4522705078125,422900.0
2026-07-21,130.07008242817932,130.59821378154385,127.46927803301472,128.45579528808594,328800.0
2026-07-22,129.35261865201468,130.02025611657908,128.02730301458666,128.71487426757812,309900.0
2026-07-23,128.39600579528673,129.36258923692642,127.71839385448645,128.54547119140625,382800.0
2026-07-24,129.13338680160044,132.26232242316664,129.13338680160044,131.8936309814453,335900.0
2026-07-27,132.72071171310446,133.60757521827134,132.19258036761323,132.9000701904297,411200.0
2026-07-28,134.9030016293852,137.54365843276426,134.3549364800917,137.32443237304688,593100.0
2026-07-29,135.52081464440568,136.11870667337666,134.0759266469227,135.75,580000.0
2026-07-30,136.39999389648438,136.39999389648438,133.11000061035156,133.8699951171875,627000.0
2026-07-31,137.4600067138672,139.57000732421875,132.1699981689453,133.9600067138672,886500.0
2026-08-03,137.22999572753906,138.4600067138672,134.52999877929688,136.77000427246094,642500.0
2026-08-04,137.8699951171875,137.8699951171875,135.33999633789062,136.17999267578125,511900.0
2026-08-05,136.8699951171875,136.8800048828125,134.8699951171875,136.75,454800.0
2026-08-06,138.6199951171875,138.69000244140625,134.6699981689453,135.77999877929688,545000.0
2026-08-07,135.05999755859375,137.67999267578125,134.7100067138672,135.4199981689453,686300.0
2026-08-10,134.38999938964844,134.52000427246094,132.92999267578125,133.67999267578125,446700.0
2026-08-11,132.8000030517578,135.0500030517578,132.8000030517578,134.75,343700.0
2026-08-12,133.50999450683594,134.47000122070312,132.27000427246094,133.14999389648438,315100.0
2026-08-13,134.44000244140625,134.44000244140625,132.08999633789062,132.57000732421875,490800.0
2026-08-14,132.08999633789062,132.75,129.55999755859375,132.10000610351562,381600.0
2026-08-17,133.16000366210938,133.16000366210938,130.22000122070312,131.74000549316406,374500.0
2026-08-18,132.75,133.47000122070312,131.22000122070312,131.72999572753906,500100.0
2026-08-19,133.0500030517578,134.3800048828125,132.2899932861328,132.92999267578125,390400.0
2026-08-20,131.4499969482422,133.8300018310547,130.89999389648438,132.9600067138672,420900.0
2026-08-21,134.0399932861328,135.1300048828125,133.10000610351562,134.8000030517578,400500.0
2026-08-24,135.36000061035156,136.33999633789062,134.38999938964844,134.75,282300.0
2026-08-25,135.58999633789062,135.58999633789062,133.22000122070312,134.72000122070312,280900.0
2026-08-26,135.0,136.63999938964844,134.44000244140625,135.24000549316406,281400.0
2026-08-27,133.77999877929688,134.69000244140625,132.25999450683594,132.86000061035156,295700.0
2026-08-31,132.2100067138672,132.44000244140625,130.8300018310547,131.6199951171875,389200.0
2026-09-01,131.64999389648438,132.07000732421875,130.77999877929688,130.9199981689453,418200.0
2026-09-02,131.27000427246094,132.25999450683594,129.69000244140625,130.3300018310547,472500.0
2026-09-03,130.64999389648438,130.64999389648438,126.98999786376953,128.3300018310547,100121.0
